EMG
7899
8001
7915
7972
7959
7910
8010
7853
8060
7846
8080
7869
8056
7931
7999
8006
7936
8068
7889
8108
7895
8103
7934
8069
7987
8006
8033
7966
8058
7945
8047
7967
8001
8034
7946
8096
7884
8135
7866
8131
7873
8100
7933
8033
7991
7964
8037
7918
8066
7931
8056
7972
8019
8029
7949
8062
7914
8081
7917
8072
7966
8024
8039
7965
8126
7918
8165
7902
8156
7921
8129
7977
8079
8051
8028
8096
8002
8096
7998
8056
8028
7987
8089
7931
8134
7905
8152
7917
8128
7956
8061
8026
7993
8089
7939
8111
7915
8101
7927
8065
7989
8018
8043
7970
8086
7957
8076
7982
8037
8050
7979
8126
7924
8177
7907
8193
7918
8169
7966
8110
8036
8036
8092
8009
8135
8006
8118
8038
8070
8071
7994
8109
7949
8128
7936
8112
7969
8062
8036
7986
8101
7923
8152
7901
8154
7921
8128
7969
8072
8024
8009
8068
7978
8076
7967
8022
7994
7972
8068
7929
8124
7904
8167
7915
8171
7970
8117
8033
8032
8089
7975
8133
7962
8146
7984
8106
8023
8049
8079
7995
8108
7964
8096
7982
8049
8027
7984
8094
7925
8155
7890
8171
7902
8160
7948
8102
8006
8033
8066
7994
8102
7985
8093
8010
8045
8060
7975
8113
7938
8145
7926
8146
7959
8093
8020
8015
8096
7957
8149
7928
8167
7936
8145
7991
8100
8045
8038
8086
7994
8086
7989
8058
8020
8001
8078
7940
8135
7893
8166
7894
8158
7928
8112
7989
8032
8056
7975
8097
7947
8103
7958
8075
8003
8030
8054
7967
8093
7943
8092
7966
8063
8017
8013
8111
7968
8172
7920
8194
7909
8178
7959
8141
8022
8071
8070
8022
8105
8003
8096
8022
8050
8057
7988
8107
7934
8148
7920
8157
7948
8119
8004
8038
8068
7968
8131
7936
8148
7928
8128
7965
8080
8024
8030
8084
7993
8095
7994
8079
8010
8014
8065
7952
8133
7916
8183
7913
8198
7944
8151
7998
8078
8077
8026
8129
8002
8142
8004
8113
8040
8047
8083
7982
8117
7959
8126
7959
8087
7996
8019
8061
7966
8143
7920
8186
7909
8168
7943
8125
7997
8061
8052
8015
8090
7990
8087
8003
8041
8046
7980
8111
7935
8150
7910
8174
7944
8154
7999
8090
8072
8005
8130
7971
8168
7972
8154
8007
8113
8054
8051
8098
8009
8126
7995
8106
8020
8040
8074
7975
8132
7910
8181
7898
8192
7926
8161
7983
8088
8038
8023
8086
7981
8097
7973
8066
7996
8011
8050
7956
8104
7933
8124
7938
8109
7987
8069
8070
8002
8147
7952
8195
7947
8193
7966
8171
8028
8104
8080
8045
8107
8004
8089
7994
8049
8052
8001
8111
7948
8164
7915
8188
7921
8159
7966
8098
8029
8013
8088
7966
8127
7947
8121
7973
8083
8033
8028
8073
7976
8098
7959
8093
7995
8055
8063
8003
8157
7960
8195
7922
8204
7930
8174
7979
8128
8052
8062
8109
8020
8127
8014
8110
8042
8059
8094
7991
8138
7953
8163
7948
8154
7980
8098
8044
8018
8112
7947
8152
7916
8150
7929
8119
7976
8070
8034
8013
8081
7987
8091
7991
8054
8038
8009
8109
7955
8175
7928
8215
7941
8202
7982
8142
8041
8050
8103
8015
8167
8003
8153
8017
8107
8050
8042
8095
7984
8116
7954
8114
7985
8083
8050
8018
8124
7952
8173
7915
8198
7916
8170
7955
8106
8015
8039
8068
7997
8099
8000
8097
8033
8039
8082
7986
8141
7947
8174
7934
8175
7983
8128
8041
8055
8120
7992
8172
7950
8175
7975
8155
8015
8099
8070
8038
8093
7994
8105
8004
8081
8040
8028
8106
7968
8175
7920
8185
7910
8178
7943
8129
8003
8052
8068
7997
8106
7972
8118
7993
8089
8035
8027
8088
7976
8129
7952
8120
7975
8086
8034
8039
8123
7984
8191
7942
8207
7939
8190
7979
8147
8046
8076
8092
8038
8131
8023
8111
8049
8055
8088
8000
8151
7949
8176
7930
8172
7941
8122
7996
8049
8071
7980
8143
7958
8156
7959
8137
7993
8089
8057
8025
8095
7986
8103
7981
8080
8016
8028
8092
7978
8178
7939
8233
7937
8216
7969
8187
8041
8126
8122
8065
8150
8005
8132
8017
8095
8057
8037
8101
7983
8137
7947
8134
7962
8113
8012
8036
8076
7971
8148
7929
8181
7929
8165
7954
8119
8013
8064
8072
8015
8103
8004
8106
8036
8066
8098
8002
8161
7961
8210
7939
8214
7965
8174
8018
8104
8091
8027
8149
7996
8182
7996
8151
8026
8099
8070
8040
8116
8002
8131
7993
8115
8039
8057
8088
7982
8160
7936
8199
7923
8202
7938
8169
7996
8093
8062
8029
8102
7998
8120
8007
8081
8040
8027
8098
7978
8149
7950
8172
7963
8147
8018
8103
8102
8026
8169
7979
8204
7965
8202
7994
8164
8036
8097
8089
8026
8105
7995
8094
8013
8049
8069
7994
8142
7939
8185
7916
8203
7938
8171
7991
8120
8059
8040
8128
7997
8151
7986
8133
8025
8100
8068
8028
8110
7988
8137
7978
8117
8021
8076
8102
8027
8173
7966
8214
7934
8223
7955
8185
8011
8134
8073
8064
8120
8029
8125
8011
8071
8033
8018
8083
7967
8150
7946
8183
7949
8164
7997
8110
8060
8027
8130
7974
8172
7943
8155
7966
8133
8021
8080
8081
8028
8116
8003
8111
8029
8086
8079
8021
8163
7983
8215
7942
8237
7937
8190
7978
8132
8053
8066
8133
8031
8169
8020
8147
8023
8082
8070
8021
8117
7976
8137
7965
8136
7996
8078
8051
8016
8138
7969
8193
7936
8209
7936
8172
7983
8115
8045
8058
8089
8006
8105
8005
8080
8040
8044
8112
7983
8176
7950
8216
7961
8205
7999
8150
8065
8088
8149
8017
8189
7991
8191
7996
8149
8036
8095
8087
8041
8124
8008
8134
8026
8099
8060
8033
8137
7972
8198
7934
8229
7937
8209
7970
8156
8033
8076
8096
8023
8132
8007
8132
8028
8090
8067
8027
8129
7987
8155
7965
8173
8005
8146
8071
8069
8146
8003
8205
7960
8217
7967
8201
8008
8135
8047
8057
8091
8019
8116
8019
8108
8046
8046
8112
7996
8173
7952
8209
7942
8203
7970
8155
8023
8068
8102
8008
8144
7965
8146
7980
8129
8032
8085
8084
8029
8124
7988
8129
7996
8108
8056
8064
8158
8011
8217
7967
8256
7958
8231
7985
8184
8045
8093
8080
8023
8107
7998
8112
8024
8084
8074
8036
8132
7988
8169
7967
8187
7983
8142
8031
8073
8110
8003
8171
7964
8200
7959
8175
7987
8129
8046
8073
8095
8027
8112
8001
8093
8036
8051
8099
8000
8173
7957
8230
7951
8232
7976
8184
8025
8117
8106
8054
8162
8015
8185
8019
8149
8047
8090
8088
8025
8133
7989
8140
7980
8104
8014
8047
8095
7985
8165
7938
8203
7931
8208
7956
8172
8018
8094
8072
8046
8118
8030
8128
8034
8096
8089
8050
8152
8007
8224
7989
8235
8006
8197
8046
8133
8114
8051
8182
8004
8219
7987
8203
8009
8141
8057
8077
8102
8028
8128
8013
8109
8032
8073
8096
8013
8171
7957
8211
7930
8219
7944
8170
7984
8091
8041
8023
8099
7992
8131
7999
8126
8036
8074
8089
8024
8145
7994
8178
8000
8169
8052
8124
8124
8049
8188
7985
8227
7966
8246
7984
8197
8031
8122
8080
8067
8124
8023
8126
8031
8092
8071
8046
8132
7976
8186
7951
8214
7965
8183
8000
8118
8067
8043
8136
7976
8161
7953
8150
7975
8120
8040
8071
8093
8015
8120
8003
8127
8037
8101
8097
8045
8189
7995
8235
7963
8254
7969
8219
8015
8161
8069
8078
8113
8029
8150
8021
8136
8056
8089
8102
8026
8158
7989
8183
7981
8165
8014
8115
8070
8042
8151
7980
8193
7947
8203
7958
8183
8010
8114
8066
8059
8103
8015
8113
8022
8097
8076
8048
8152
8005
8213
7982
8255
7977
8223
8011
8167
8077
8099
8157
8042
8200
8010
8178
8018
8136
8047
8074
8099
8022
8137
8000
8138
8024
8094
8066
8036
8142
7974
8200
7942
8233
7943
8205
7977
8144
8037
8075
8102
8032
8130
8021
8131
8051
8086
8102
8034
8166
8009
8213
7995
8207
8017
8159
8072
8065
8137
8002
8202
7990
8245
8000
8213
8037
8154
8086
8077
8117
8028
8129
8028
8115
8072
8050
8134
7986
8189
7948
8231
7940
8208
7965
8150
8024
8072
8105
8020
8158
8002
8164
8010
8125
8059
8079
8107
8025
8153
7998
8172
8028
8146
8081
8080
8167
8022
8223
7970
8251
7958
8226
7997
8184
8057
8111
8115
8060
8137
8030
8124
8042
8083
8104
8036
8155
7977
8185
7956
8191
7981
8154
8035
8089
8114
8012
8181
7979
8203
7982
8176
8009
8122
8065
8063
8111
8025
8130
8029
8115
8065
8075
8150
8026
8208
7979
8256
7956
8235
7985
8190
8045
8135
8130
8068
8167
8026
8171
8024
8130
8057
8070
8107
8012
8148
7983
8169
8005
8155
8055
8080
8129
8010
8188
7952
8202
7931
8200
7969
8168
8027
8095
8091
8053
8132
8033
8136
8061
8105
8113
8056
8185
7999
8231
7975
8230
7989
8203
8054
8144
8130
8068
8198
8028
8215
7999
8175
8013
8118
8049
8048
8101
8014
8127
8011
8121
8038
8063
8099
8004
8178
7959
8217
7940
8240
7961
8197
8012
8132
8082
8065
8145
8029
8143
8016
8111
8047
8066
8122
8025
8171
7994
8196
8006
8189
8054
8133
8134
8064
8201
8013
8245
7992
8261
8011
8198
8048
8124
8101
8067
8133
8029
8134
8047
8092
8088
8034
8156
7978
8205
7946
8212
7951
8186
8005
8139
8086
8061
8140
8010
8177
7997
8169
8015
8121
8068
8067
8122
8030
8161
8027
8174
8054
8121
8122
8052
8192
7993
8240
7965
8263
7978
8227
8031
8164
8072
8081
8127
8036
8149
8027
8124
8057
8067
8113
8002
8158
7967
8195
7976
8183
8018
8124
8090
8053
8155
7995
8190
7952
8200
7977
8175
8022
8119
8080
8056
8122
8029
8140
8051
8117
8110
8077
8185
8018
8240
7977
8263
7976
8227
8020
8182
8095
8117
8158
8050
8189
8024
8174
8029
8133
8075
8073
8129
8025
8162
8001
8167
8024
8129
8100
8055
8165
7997
8224
7956
8247
7953
8209
7996
8155
8064
8096
8127
8054
8147
8040
8118
8060
8080
8128
8034
8200
8001
8253
7997
8225
8027
8179
8091
8107
8161
8042
8217
8012
8230
8010
8191
8034
8122
8086
8057
8131
8032
8144
8040
8117
8076
8057
8137
7986
8186
7929
8204
7922
8195
7965
8157
8026
8092
8112
8037
8155
8022
8160
8026
8120
8078
8073
8134
8019
8184
8012
8209
8034
8171
8099
8099
8164
8030
8235
7998
8272
7992
8247
8006
8170
8051
8088
8096
8037
8117
8017
8113
8045
8076
8111
8026
8188
7992
8235
7976
8227
7985
8175
8041
8104
8104
8015
8154
7981
8186
7990
8175
8037
8127
8091
8074
8148
8049
8184
8056
8159
8095
8117
8173
8044
8226
7987
8267
7979
8268
8007
8221
8061
8159
8127
8082
8168
8035
8157
8030
8116
8073
8060
8130
8012
8175
7986
8189
7999
8168
8050
8104
8125
8028
8188
7983
8218
7968
8235
8003
8183
8058
8108
8105
8060
8137
8039
8137
8060
8105
8139
8056
8208
8008
8258
7977
8257
7996
8213
8046
8151
8131
8081
8183
8027
8204
8022
8177
8036
8115
8081
8049
8130
8015
8151
8015
8147
8052
8091
8126
8034
8189
7973
8227
7948
8235
7959
8193
8015
8135
8085
8072
8135
8033
8142
8036
8122
8084
8078
8146
8033
8213
8008
8235
8012
8207
8051
8144
8124
8070
8195
8020
8236
7990
8226
7999
8173
8041
8105
8099
8054
8142
8040
8144
8061
8105
8098
8032
8156
7966
8206
7940
8227
7959
8215
8019
8160
8081
8080
8153
8038
8178
8011
8157
8032
8111
8085
8068
8156
8039
8197
8037
8207
8079
8155
8133
8074
8197
8008
8244
7968
8264
7975
8220
8020
8153
8076
8084
8131
8046
8135
8041
8123
8079
8072
8136
8020
8189
7975
8214
7973
8205
8014
8154
8083
8069
8148
8009
8199
7990
8214
8016
8196
8062
8123
8114
8066
8155
8045
8155
8063
8146
8128
8083
8196
8023
8249
7981
8277
7988
8262
8032
8194
8083
8122
8149
8052
8176
8036
8158
8040
8108
8075
8052
8138
8002
8173
7993
8183
8029
8146
8092
8068
8151
8000
8205
7953
8221
7959
8211
8006
8154
8065
8087
8122
8045
8145
8049
8139
8092
8096
8167
8053
8222
7998
8256
7982
8229
8013
8186
8078
8126
8167
8066
8211
8016
8224
8030
8191
8053
8114
8107
8065
8151
8034
8175
8038
8134
8076
8057
8140
7988
8197
7953
8241
7945
8225
7981
8174
8045
8114
8124
8066
8166
8041
8158
8051
8111
8093
8060
8157
8026
8233
8028
8229
8035
8187
8098
8130
8175
8064
8248
8028
8282
8012
8250
8033
8186
8073
8105
8116
8046
8138
8034
8127
8058
8078
8116
8016
8184
7965
8236
7961
8224
7979
8183
8036
8116
8114
8046
8175
8011
8191
8015
8165
8053
8121
8115
8066
8158
8033
8184
8047
8176
8090
8116
8157
8041
8219
7996
8274
7992
8274
8004
8218
8059
8141
8113
8068
8143
8034
8144
8048
8116
8099
8061
8147
8006
8201
7981
8210
7993
8181
8042
8121
8127
8041
8182
7994
8216
7982
8215
8024
8180
8074
8114
8127
8067
8161
8041
8143
8076
8109
8148
8066
8228
8012
8273
7989
8274
7999
8226
8047
8160
8123
8089
8177
8036
8186
8024
8150
8050
8107
8098
8046
8140
8010
8181
8008
8166
8065
8117
8119
8035
8184
7981
8231
7963
8245
7971
8198
8035
8146
8096
8085
8140
8048
8152
8059
8126
8112
8089
8183
8037
8249
8004
8257
8004
8221
8056
8172
8132
8102
8199
8040
8236
8012
8236
8022
8179
8068
8102
8119
8057
8156
8035
8145
8054
8108
8118
8053
8181
7986
8233
7960
8252
7972
8219
8009
8158
8089
8099
8153
8045
8177
8030
8154
8059
8113
8117
8064
8172
8024
8216
8025
8211
8064
8165
8129
8091
8196
8013
8245
7985
8263
7999
8232
8052
8173
8100
8093
8130
8047
8140
8048
8120
8096
8076
8167
8019
8215
7980
8248
7975
8218
8010
8161
8087
8091
8155
8035
8199
8013
8205
8017
8152
8052
8091
8099
8033
8143
8031
8175
8077
8168
8138
8095
8195
8025
8250
7982
8277
7992
8256
8035
8204
8087
8133
8152
8074
8174
8045
8154
8061
8115
8113
8053
8164
8005
8205
7995
8201
8023
8164
8095
8090
8171
8020
8212
7981
8226
7981
8200
8021
8151
8071
8079
8120
8042
8137
8039
8124
8092
8096
8179
8047
8232
7995
8272
7995
8266
8031
8211
8103
8143
8153
8064
8201
8026
8193
8027
8164
8073
8110
8131
8057
8159
8022
8171
8028
8143
8084
8083
8168
8022
8231
7978
8256
7961
8225
7992
8172
8040
8094
8100
8057
8147
8042
8148
8061
8116
8132
8081
8209
8041
8253
8014
8240
8026
8197
8103
8145
8176
8064
8218
8015
8241
8000
8217
8021
8141
8064
8080
8122
8056
8159
8055
8158
8096
8113
8173
8054
8230
7994
8266
7964
8244
7992
8208
8053
8143
8127
8079
8181
8037
8203
8039
8158
8071
8103
8130
8067
8184
8043
8215
8046
8191
8094
8132
8167
8058
8236
8013
8284
8000
8273
8015
8211
8063
8140
8114
8068
8143
8049
8155
8062
8116
8114
8055
8169
7994
8205
7969
8219
7993
8196
8041
8131
8114
8051
8181
8010
8218
8004
8208
8029
8142
8069
8079
8120
8042
8160
8045
8174
8090
8140
8157
8068
8230
8015
8290
8006
8302
8023
8250
8052
8171
8113
8094
8163
8044
8177
8034
8150
8066
8094
8115
8042
8168
8010
8200
8006
8179
8046
8122
8124
8051
8184
7992
8236
7974
8247
7996
8206
8047
8149
8107
8089
8160
8071
8174
8087
8155
8148
8105
8214
8036
8263
8002
8260
8003
8229
8051
8181
8133
8104
8180
8044
8220
8019
8222
8039
8156
8082
8090
8122
8030
8147
8017
8152
8054
8123
8117
8047
8184
7994
8247
7967
8267
7987
8228
8024
8173
8088
8108
8158
8065
8187
8058
8166
8085
8126
8149
8070
8219
8039
8256
8025
8227
8065
8178
8130
8107
8203
8041
8251
8005
8256
8003
8206
8041
8135
8096
8081
8139
8053
8149
8052
8113
8088
8055
8152
7990
8212
7972
8247
7964
8223
8003
8168
8075
8103
8153
8045
8191
8019
8183
8030
8147
8090
8103
8151
8055
8191
8050
8201
8069
8162
8132
8103
8204
8035
8255
7994
8280
8000
8267
8035
8190
8086
8109
8125
8057
8150
8040
8145
8070
8103
8132
8046
8193
8007
8241
8000
8224
8023
8174
8094
8105
8165
8038
8217
7997
8240
8000
8210
8054
8166
8115
8106
8165
8071
8175
8074
8157
8117
8106
8191
8047
8244
7994
8275
7989
8263
8027
8215
8082
8138
8155
8060
8189
8034
8179
8045
8143
8087
8097
8145
8050
8191
8020
8190
8026
8142
8084
8091
8165
8022
8220
7972
8258
7977
8235
8009
8186
8069
8119
8126
8064
8151
8052
8148
8087
8124
8164
8082
8234
8041
8275
8011
8253
8034
8211
8105
8146
8172
8067
8214
8015
8221
8004
8197
8041
8143
8094
8083
8143
8033
8152
8033
8130
8072
8082
8149
8021
8210
7968
8257
7957
8241
7983
8200
8048
8137
8128
8071
8185
8047
8198
8068
8184
8115
8126
8194
8086
8253
8055
8248
8069
8210
8109
8148
8177
8069
8244
8024
8283
8003
8265
8025
8198
8064
8123
8122
8068
8147
8051
8133
8054
8096
8116
8037
8190
7993
8239
7968
8235
7989
8196
8044
8126
8116
8066
8183
8013
8208
8012
8197
8053
8150
8111
8098
8166
8061
8203
8062
8183
8098
8135
8160
8062
8237
8018
8297
8003
8283
7999
8229
8045
8152
8100
8085
8160
8045
8165
8048
8134
8084
8080
8143
8033
8198
8002
8211
8012
8192
8050
8125
8125
8058
8192
8003
8236
7986
8239
8002
8192
8057
8124
8115
8090
8169
8072
8185
8102
8157
8169
8098
8227
8036
8278
7999
8286
8011
8244
8046
8158
8104
8085
8177
8039
8199
8028
8183
8057
8148
8112
8089
8161
8044
8186
8028
8177
8066
8130
8134
8051
8203
8000
8241
7961
8260
7982
8218
8034
8164
8094
8091
8150
8056
8165
8058
8150
8106
8113
8191
8067
8246
8027
8262
8021
8231
8057
8182
8146
8116
8208
8045
8242
8019
8253
8016
8185
8045
8124
8110
8073
8145
8051
8164
8071
8128
8131
8070
8192
8017
8242
7980
8271
7978
8225
8014
8167
8079
8112
8164
8054
8197
8040
8187
8071
8157
8132
8112
8201
8071
8230
8042
8201
8062
8159
8136
8100
8206
8041
8268
8005
8279
7990
8232
8032
8172
8075
8094
8138
8061
8168
8064
8150
8098
8109
8167
8043
8211
7995
8252
7988
8226
8021
8172
8097
8109
8169
8033
8210
8010
8234
8020
8199
8073
8151
8138
8104
8202
8092
8220
8098
8180
8137
8099
8198
8035
8252
8006
8296
8003
8279
8029
8204
8084
8135
8143
8062
8176
8041
8172
8055
8132
8103
8075
8154
8029
8203
8003
8195
8033
8161
8098
8093
8162
8014
8216
7974
8255
7987
8226
8011
8169
8065
8100
8129
8070
8170
8070
8159
8104
8120
8180
8068
8235
8019
8276
8008
8260
8039
8218
8102
8150
8170
8075
8216
8025
8221
8021
8175
8057
8121
8115
8074
8163
8053
8187
8061
8164
8090
8109
8177
8042
8239
8000
8284
7990
8274
8016
8214
8068
8147
8146
8086
8185
8053
8166
8065
8144
8123
8110
8202
8047
8228
8015
8229
8037
8199
8107
8152
8190
8075
8236
8015
8271
8006
8249
8034
8193
8091
8122
8143
8078
8156
8054
8140
8073
8095
8133
8032
8204
7985
8243
7965
8231
7982
8194
8041
8142
8127
8072
8183
8028
8197
8025
8178
8079
8142
8140
8097
8207
8077
8229
8082
8211
8127
8158
8195
8083
8255
8025
8296
7992
8285
8014
8229
8057
8146
8110
8081
8164
8057
8168
8068
8135
8113
8085
8169
8028
8227
8003
8232
8016
8203
8058
8131
8130
8062
8200
8019
8246
8008
8240
8027
8189
8088
8132
8140
8086
8185
8080
8192
8105
8145
8166
8075
8229
8025
8284
8000
8294
8013
8242
8047
8163
8118
8088
8170
8033
8188
8033
8162
8055
8109
8110
8067
8168
8023
8195
8024
8186
8071
8137
8146
8062
8214
8000
8252
7975
8256
7994
8212
8037
8147
8095
8083
8153
8062
8172
8085
8175
8138
8112
8203
8050
8261
8021
8279
8027
8241
8068
8177
8138
8118
8208
8053
8242
8018
8232
8028
8188
8075
8119
8138
8071
8173
8060
8180
8073
8132
8132
8056
8196
8003
8262
7979
8273
7989
8236
8035
8181
8111
8100
8155
8049
8186
8050
8169
8088
8139
8143
8103
8222
8062
8257
8051
8227
8079
8176
8155
8118
8223
8039
8246
7987
8261
7990
8210
8022
8146
8086
8087
8130
8054
8155
8056
8125
8104
8083
8166
8021
8219
7981
8252
7989
8229
8026
8182
8104
8119
8183
8062
8221
8030
8240
8044
8206
8107
8170
8185
8115
8238
8097
8228
8099
8187
8156
8117
8214
8041
8281
8003
8286
7986
8240
8007
8177
8076
8117
8139
8058
8177
8050
8164
8069
8119
8114
8057
8180
8019
8216
8007
8212
8039
8173
8098
8094
8160
8015
8206
7983
8247
7990
8219
8046
8173
8107
8112
8152
8078
8187
8091
8181
8129
8122
8198
8065
8249
8017
8294
8017
8286
8042
8213
8106
8149
8161
8074
8206
8038
8211
8048
8187
8090
8117
8131
8065
8163
8022
8171
8030
8148
8083
8098
8176
8030
8227
7988
8279
7985
8266
8025
8212
8076
8146
8148
8088
8189
8075
8197
8107
8169
8173
8100
8228
8054
8268
8026
8256
8048
8224
8122
8156
8182
8070
8230
8017
8255
8007
8219
8039
8176
8094
8103
8137
8058
8157
8050
8137
8076
8083
8144
8025
8210
7988
8264
7970
8249
8001
8209
8066
8156
8139
8083
8191
8043
8208
8056
8191
8104
8145
8182
8089
8234
8065
8236
8071
8214
8125
8143
8189
8069
8248
8016
8281
7992
8269
8006
8204
8062
8139
8119
8078
8156
8062
8164
8079
8134
8130
8070
8189
8015
8245
7995
8240
8009
8201
8059
8166
8161
8103
8212
8031
8231
8003
8221
8031
8153
8075
8096
8131
8060
8178
8070
8187
8102
8133
8167
8073
8237
8024
8299
8007
8298
8019
8245
8058
8172
8131
8097
8175
8057
8193
8059
8169
8093
8115
8136
8056
8200
8027
8215
8028
8199
8078
8145
8141
8057
8210
8015
8243
7987
8260
8015
8220
8064
8157
8120
8096
8187
8084
8203
8116
8179
8177
8118
8228
8053
8281
8020
8294
8040
8254
8073
8185
8137
8108
8186
8029
8212
8014
8204
8030
8158
8087
8110
8153
8068
8172
8041
8174
8068
8139
8140
8078
8214
8007
8245
7971
8273
7992
8246
8034
8180
8092
8100
8160
8067
8186
8066
8195
8120
8162
8193
8092
8240
8044
8251
8033
8230
8073
8181
8144
8112
8204
8034
8241
7981
8236
7988
8202
8047
8158
8106
8089
8150
8058
8161
8065
8129
8109
8077
8179
8024
8252
7996
8271
7998
8254
8043
8197
8113
8126
8174
8059
8209
8029
8203
8051
8163
8101
8120
8167
8085
8224
8063
8218
8077
8176
8150
8126
8228
8059
8293
8015
8299
8002
8248
8030
8182
8074
8112
8150
8067
8164
8057
8154
8084
8112
8137
8059
8209
8022
8251
8017
8240
8039
8192
8116
8126
8186
8048
8221
8009
8246
8010
8219
8069
8168
8124
8120
8196
8104
8216
8104
8190
8147
8109
8195
8048
8249
8013
8290
7992
8258
8018
8204
8068
8133
8146
8068
8194
8043
8198
8053
8161
8102
8100
8152
8048
8190
8030
8213
8046
8172
8112
8113
8180
8045
8238
8003
8283
7991
8260
8021
8198
8085
8151
8147
8091
8188
8077
8193
8110
8130
8171
8091
8240
8053
8288
8024
8276
8038
8218
8099
8148
8169
8062
8208
8014
8222
8015
8206
8055
8151
8105
8093
8157
8062
8174
8059
8167
8099
8105
8166
8039
8229
7992
8270
7975
8264
8004
8221
8063
8154
8133
8085
8180
8058
8206
8079
8190
8130
8144
8198
8087
8246
8050
8248
8061
8224
8127
8168
8195
8102
8254
8035
8289
8004
8266
8020
8209
8074
8143
8123
8070
8156
8058
8162
8092
8125
8145
8071
8208
8016
8255
7997
8274
8013
8230
8062
8159
8136
8085
8185
8023
8207
8004
8191
8049
8170
8117
8123
8192
8085
8218
8081
8205
8110
8160
8180
8091
8255
8035
8298
8005
8286
8000
8225
8042
8160
8105
8099
8165
8055
8172
8058
8148
8097
8092
8144
8035
8202
8007
8224
8016
8198
8056
8159
8148
8093
8213
8026
8247
7996
8244
8009
8207
8076
8159
8158
8109
8199
8099
8199
8110
8169
8162
8090
8222
8039
8282
8006
8281
8002
8244
8044
8182
8126
8118
8179
8046
8203
8030
8190
8057
8138
8095
8090
8153
8045
8199
8040
8193
8074
8142
8137
8071
8202
8016
8272
7990
8294
8010
8250
8041
8186
8125
8137
8177
8086
8199
8096
8190
8128
8129
8190
8075
8253
8042
8268
8037
8257
8077
8204
8146
8121
8203
8047
8239
8015
8252
8020
8208
8071
8141
8118
8086
8162
8058
8165
8071
8147
8133
8081
8195
8025
8245
7981
8270
7980
8235
8015
8185
8082
8115
8155
8066
8201
8049
8217
8081
8180
8144
8135
8220
8092
8253
8067
8239
8091
8196
8168
8135
8221
8049
8274
8007
8285
7994
8227
8017
8172
8080
8112
8140
8070
8169
8069
8153
8102
8108
8167
8050
8221
8010
8262
8000
8242
8033
8192
8098
8118
8158
8032
8194
8001
8219
8030
8215
8083
8172
8148
8118
8210
8095
8219
8091
8184
8149
8126
8211
8063
8280
8011
8294
7999
8272
8020
8207
8077
8134
8133
8072
8190
8056
8185
8069
8155
8116
8103
8186
8057
8231
8032
8228
8054
8195
8117
8127
8185
8053
8251
8015
8284
7998
8249
8031
8203
8094
8144
8165
8097
8204
8094
8188
8115
8131
8180
8071
8231
8021
8273
8000
8250
8009
8208
8076
8144
8150
8069
8193
8027
8219
8028
8201
8068
8148
8132
8098
8180
8066
8205
8063
8175
8097
8117
8165
8044
8237
8004
8282
7987
8284
8013
8222
8069
8161
8137
8093
8185
8067
8186
8090
8174
8131
8115
8208
8071
8262
8042
8269
8058
8223
8107
8155
8167
8066
8226
8017
8261
8001
8245
8026
8190
8078
8127
8139
8078
8159
8068
8179
8099
8137
8154
8067
8220
8002
8273
7994
8283
8019
8243
8080
8181
8151
8109
8189
8046
8215
8043
8203
8078
8167
8154
8116
8220
8087
8251
8084
8219
8123
8164
8182
8083
8235
8018
8277
7981
8265
7992
8219
8050
8159
8113
8095
8168
8064
8168
8062
8136
8112
8097
8185
8038
8234
8008
8242
8016
8221
8068
8160
8144
8105
8225
8039
8255
8018
8251
8048
8203
8107
8159
8178
8111
8209
8087
8199
8098
8150
8163
8087
8228
8034
8293
7999
8288
8004
8233
8033
8174
8106
8089
8163
8055
8199
8040
8179
8074
8139
8127
8089
8192
8053
8221
8042
8199
8070
8149
8142
8093
8214
8030
8284
7998
8270
7996
8226
8040
8177
8111
8112
8176
8091
8207
8100
8182
8147
8126
8212
8071
8274
8042
8310
8049
8266
8077
8211
8147
8127
8203
8047
8237
8023
8239
8039
8198
8084
8142
8143
8080
8173
8057
8184
8070
8143
8131
8070
8192
8017
8244
7980
8271
7980
8246
8023
8174
8083
8120
8160
8057
8192
8064
8206
8102
8172
8165
8107
8217
8059
8259
8054
8242
8082
8201
8152
8121
8211
8045
8254
8007
8273
8002
8234
8041
8180
8104
8108
8152
8074
8164
8073
8150
8107
8099
8180
8044
8234
7999
8274
7997
8250
8036
8201
8104
8137
8172
8064
8217
8039
8237
8053
8206
8103
8150
8161
8100
8206
8066
8209
8083
8175
8145
8131
8219
8055
8268
8003
8289
7985
8250
8023
8199
8078
8136
8155
8087
8196
8071
8184
8084
8136
8133
8083
8204
8043
8247
8022
8226
8033
8182
8105
8117
8174
8037
8220
7991
8248
7997
8248
8054
8195
8120
8142
8193
8103
8207
8103
8200
8143
8149
8207
8084
8278
8027
8299
8013
8288
8037
8229
8095
8144
8151
8067
8193
8034
8214
8053
8194
8093
8139
8156
8088
8189
8053
8207
8060
8183
8117
8130
8187
8055
8245
8005
8287
7982
8260
8009
8204
8070
8151
8152
8105
8205
8085
8206
8107
8166
8168
8102
8217
8053
8265
8027
8260
8039
8220
8096
8144
8158
8064
8216
8014
8237
8006
8232
8033
8175
8088
8104
8142
8060
8156
8046
8157
8095
8122
8178
8071
8241
8018
8289
7996
8290
8022
8236
8074
8172
8149
8118
8213
8076
8243
8084
8220
8129
8169
8189
8104
8229
8067
8241
8069
8224
8126
8164
8193
8085
8238
8009
8272
7988
8266
8015
8223
8059
8148
8118
8090
8171
8071
8178
8095
8146
8139
8086
8198
8030
8253
8002
8252
8022
8238
8082
8172
8147
8097
8202
8037
8242
8029
8243
8068
8202
8126
8150
8189
8100
8229
8087
8200
8111
8159
8178
8089
8240
8025
8289
7993
8284
7991
8230
8035
8169
8118
8098
8169
8055
8185
8051
8168
8085
8122
8153
8079
8214
8042
8231
8035
8207
8070
8155
8146
8069
8201
8009
8250
7996
8268
8023
8224
8056
8164
8117
8107
8184
8092
8209
8113
8188
8166
8122
8223
8052
8276
8019
8291
8025
8255
8067
8197
8137
8115
8192
8055
8222
8038
8232
8046
8177
8097
8117
8159
8077
8202
8051
8186
8077
8154
8145
8079
8213
8024
8272
7991
8282
7982
8237
8025
8174
8104
8129
8179
8088
8206
8091
8205
8122
8152
8181
8092
8247
8046
8262
8042
8245
8071
8185
8136
8120
8199
8037
8243
8002
8258
8013
8220
8056
8170
8121
8101
8157
8068
8173
8080
8161
8135
8098
8194
8030
8238
7992
8276
7996
8263
8036
8204
8108
8130
8171
8070
8208
8056
8240
8078
8204
8132
8146
8192
8096
8241
8073
8225
8097
8194
8160
8131
8225
8062
8285
8008
8288
7994
8268
8040
8205
8094
8136
8152
8072
8185
8075
8175
8099
8126
8168
8076
8216
8029
8264
8017
8245
8045
8196
8112
8123
8172
8042
8223
8004
8248
8013
8224
8066
8179
8137
8131
8198
8097
8209
8096
8182
8137
8128
8203
8054
8257
8012
8300
8007
8287
8041
8231
8103
8156
8164
8086
8204
8049
8201
8056
8156
8103
8110
8154
8062
8219
8039
8216
8049
8180
8118
8132
8186
8045
8240
8001
8277
7989
8261
8032
8210
8087
8159
8168
8114
8208
8095
8195
8106
8139
8176
8091
8233
8052
8287
8025
8278
8044
8222
8101
8150
8160
8065
8210
8019
8227
8019
8213
8056
8177
8114
8106
8162
8063
8188
8070
8181
8104
8124
8181
8061
8247
8018
8292
7998
8291
8017
8235
8073
8170
8154
8108
8217
8098
8254
8111
8214
8152
8149
8198
8085
8254
8056
8262
8063
8214
8113
8150
8170
8071
8221
8005
8259
7996
8257
8018
8213
8077
8153
8129
8087
8169
8078
8193
8106
8140
8157
8073
8206
8015
8259
7986
8265
8010
8221
8065
8163
8137
8102
8210
8048
8237
8049
8239
8086
8196
8142
8131
8196
8084
8221
8083
8214
8132
8167
8197
8091
8248
8026
8291
7995
8285
7996
8227
8054
8169
8123
8097
8168
8069
8192
8067
8159
8104
8106
8169
8047
8227
8021
8237
8035
8229
8085
8174
8170
8103
8226
8032
8258
8014
8275
8040
8234
8101
8180
8161
8115
8199
8097
8199
8100
8163
8168
8103
8232
8049
8290
8013
8291
8012
8239
8049
8171
8118
8111
8182
8057
8217
8036
8202
8063
8151
8102
8091
8163
8049
8198
8037
8196
8084
8159
8159
8079
8222
8016
8267
7985
8271
7997
8243
8051
8190
8131
8139
8189
8103
8220
8103
8200
8139
8139
8202
8082
8268
8055
8290
8040
8250
8078
8194
8136
8105
8192
8030
8230
8007
8252
8026
8204
8067
8141
8133
8104
8171
8064
8192
8084
8158
8146
8088
8202
8033
8269
7999
8293
8004
8257
8042
8204
8117
8141
8174
8079
8222
8073
8239
8095
8184
8136
8115
8194
8069
8241
8059
8237
8094
8190
8156
8121
8214
8035
8251
7992
8271
7989
8239
8038
8186
8104
8121
8165
8086
8195
8086
8177
8111
8109
8174
8057
8227
8005
8255
8005
8243
8035
8184
8099
8116
8166
8053
8235
8039
8268
8060
8251
8116
8199
8172
8128
8217
8097
8223
8102
8197
8168
8156
8239
8072
8268
8014
8297
8000
8279
8031
8224
8103
8143
8149
8072
8189
8047
8176
8061
8141
8102
8082
8161
8040
8225
8024
8224
8050
8186
8113
8126
8186
8051
8240
7999
8262
7993
8255
8042
8213
8121
8169
8186
8120
8227
8111
8205
8130
8155
8195
8087
8268
8046
8293
8017
8283
8025
8210
8064
8132
8151
8068
8206
8035
8228
8045
8214
8079
8142
8126
8084
8170
8059
8195
8066
8170
8097
8118
8183
8057
8251
8007
8285
7990
8274
8007
8224
8071
8165
8145
8110
8206
8090
8229
8104
8188
8150
8126
8220
8087
8274
8054
8276
8066
8234
8118
8164
8177
8074
8228
8017
8266
8013
8262
8045
8203
8101
8137
8150
8090
8178
8080
8182
8106
8140
8172
8072
8225
8018
8278
7999
8281
8008
8235
8061
8168
8146
8094
8203
8065
8240
8067
8239
8106
8183
8167
8115
8216
8084
8246
8087
8218
8131
8169
8191
8085
8245
8017
8286
7986
8276
8000
8226
8059
8174
8137
8109
8181
8073
8177
8073
8148
8121
8095
8191
8040
8245
8015
8259
8026
8216
8056
8144
8128
8070
8194
8030
8249
8023
8274
8068
8232
8120
8180
8182
8122
8230
8102
8220
8127
8183
8196
8106
8233
8023
8274
7988
8277
7992
8238
8046
8175
8114
8111
8180
8062
8213
8067
8207
8095
8155
8150
8095
8199
8058
8215
8030
8185
8052
8138
8130
8074
8210
8018
8261
7996
8278
8012
8246
8071
8207
8155
8158
8207
8091
8207
8097
8176
8154
8129
8226
8076
8275
8037
8285
8027
8253
8058
8184
8125
8113
8193
8050
8248
8035
8254
8052
8202
8078
8126
8137
8079
8180
8073
8202
8094
8170
8158
8097
8219
8028
8266
7984
8278
7989
8244
8028
8198
8118
8149
8196
8103
8235
8092
8238
8120
8179
8173
8114
8215
8059
8256
8046
8231
8073
8187
8143
8112
8213
8044
8262
8013
8278
8011
8240
8047
8179
8103
8110
8169
8081
8179
8078
8152
8113
8100
8172
8031
8236
8003
8268
8001
8253
8034
8192
8102
8131
8181
8074
8230
8052
8258
8072
8241
8113
8168
8173
8101
8230
8086
8224
8103
8202
8157
8133
8221
8055
8264
7999
8284
7986
8263
8023
8206
8092
8143
8160
8086
8188
8073
8185
8097
8154
8150
8100
8208
8044
8255
8034
8251
8062
8202
8114
8124
8184
8054
8244
8020
8278
8029
8267
8068
8216
8132
8146
8182
8105
8209
8104
8203
8151
8157
8206
8079
8272
8024
8286
7995
8267
8009
8203
8071
8139
8146
8067
8196
8036
8207
8040
8174
8084
8134
8143
8077
8189
8051
8210
8057
8185
8113
8128
8186
8047
8244
7999
8281
7993
8280
8024
8224
8098
8179
8176
8133
8220
8111
8231
8117
8178
8169
8114
8233
8067
8280
8038
8276
8053
8230
8107
8158
8171
8081
8223
8028
8262
8013
8246
8051
8182
8101
8113
8144
8075
8176
8064
8169
8094
8108
8159
8063
8229
8011
8290
7988
8272
8012
8231
8067
8171
8144
8112
8207
8081
8249
8096
8238
8133
8170
8190
8112
8249
8089
8266
8079
8221
8121
8157
8183
8076
8245
8013
8278
7998
8274
8010
8219
8065
8158
8122
8095
8183
8076
8176
8088
8139
8134
8086
8199
8036
8258
8009
8261
8010
8221
8066
8163
8146
8104
8205
8047
8252
8037
8261
8072
8210
8125
8141
8184
8099
8226
8087
8215
8121
8176
8186
8097
8242
8027
8287
8003
8289
8002
8252
8052
8182
8124
8125
8182
8063
8197
8063
8178
8093
8127
8150
8079
8213
8040
8235
8040
8217
8081
8169
8146
8096
8213
8029
8256
8004
8271
8023
8234
8079
8192
8154
8134
8202
8099
8205
8119
8194
8180
8147
8235
8076
8294
8032
8301
8014
8251
8043
8192
8128
8132
8206
8070
8231
8043
8239
8060
8201
8110
8129
8153
8075
8181
8046
8186
8064
8151
8138
8085
8206
8028
8273
7994
8286
7991
8254
8036
8206
8117
8149
8184
8094
8215
8083
8198
8115
8149
8171
8091
8241
8059
8278
8052
8255
8068
8194
8131
8117
8193
8046
8239
8011
8265
8016
8233
8053
8167
8108
8106
8158
8074
8170
8076
8165
8123
8101
8192
8050
8262
8013
8291
8007
8267
8042
8222
8113
8155
8186
8094
8237
8083
8257
8096
8217
8129
8145
8194
8100
8256
8093
8252
8103
8197
8143
8128
8205
8046
8247
7992
8281
7997
8278
8041
8217
8089
8142
8151
8086
8184
8076
8179
8095
8130
8138
8059
8211
8030
8265
8023
8252
8048
8217
8106
8132
8165
8062
8230
8023
8258
8033
8249
8070
8196
8133
8129
8188
8100
8217
8110
8200
8154
8155
8205
8072
8259
8014
8291
7993
8275
8019
8228
8068
8149
8147
8084
8199
8058
8211
8070
8185
8115
8123
8177
8075
8220
8043
8231
8061
8206
8120
8143
8180
8063
8233
8003
8277
8003
8283
8045
8235
8111
8188
8180
8130
8222
8111
8218
8139
8182
8192
8113
8237
8049
8281
8017
8282
8028
8225
8070
8152
8148
8099
8212
8036
8240
8023
8228
8060
8180
8116
8122
8170
8079
8204
8065
8190
8102
8138
8181
8075
8239
8010
8272
7981
8273
8002
8240
8063
8183
8145
8138
8228
8113
8261
8112
8214
8144
8167
8211
8109
8270
8071
8264
8053
8215
8080
8147
8147
8065
8216
8024
8277
7997
8266
8015
8213
8062
8151
8131
8092
8166
8073
8182
8096
8146
8145
8075
8203
8033
8271
8006
8283
8014
8237
8057
8180
8136
8117
8210
8068
8248
8071
8258
8091
8202
8137
8135
8205
8095
8246
8095
8229
8122
8182
8181
8108
8229
8022
8268
7985
8278
7991
8232
8036
8168
8099
8104
8158
8066
8192
8078
8170
8108
8116
8168
8067
8221
8025
8250
8023
8227
8056
8169
8126
8096
8208
8046
8257
8037
8293
8062
8267
8109
8195
8167
8129
8204
8091
8199
8103
8178
8168
8130
8232
8059
8289
8013
8296
8001
8258
8043
8186
8106
8116
8175
8063
8209
8044
8228
8076
8185
8129
8120
8190
8067
8216
8051
8210
8080
8176
8144
8107
8208
8030
8253
7996
8291
8009
8278
8066
8226
8147
8179
8201
8111
8216
8100
8206
8129
8167
8209
8102
8271
8058
8292
8039
8263
8059
8197
8110
8125
8185
8062
8241
8029
8262
8035
8226
8081
8169
8128
8102
8159
8060
8168
8066
8162
8123
8096
8193
8033
8240
7985
8276
7984
8280
8035
8223
8114
8171
8188
8116
8234
8091
8245
8103
8194
8143
8137
8210
8097
8262
8071
8244
8079
8201
8121
8123
8184
8045
8240
8005
8270
8004
8259
8028
8196
8080
8141
8150
8090
8189
8077
8169
8102
8128
8172
8077
8236
8025
8273
8010
8252
8023
8210
8093
8157
8169
8101
8235
8061
8285
8075
8268
8110
8195
8151
8127
8202
8096
8246
8099
8203
8129
8131
8183
8061
8241
8003
8282
7984
8279
8010
8224
8069
8160
8135
8088
8186
8062
8199
8073
8161
8118
8112
8185
8059
8243
8031
8245
8049
8212
8102
8151
8170
8075
8241
8026
8281
8022
8281
8057
8230
8105
8168
8168
8108
8199
8100
8209
8125
8167
8177
8084
8232
8028
8279
8001
8288
8022
8244
8073
8175
8140
8109
8190
8046
8227
8053
8230
8086
8176
8134
8108
8188
8067
8221
8064
8200
8099
8161
8178
8081
8237
8011
8270
7987
8281
8012
8250
8075
8209
8163
8155
8213
8103
8240
8113
8199
8147
8140
8212
8083
8259
8044
8268
8036
8236
8069
8159
8135
8095
8208
8033
8242
8010
8263
8028
8209
8079
8155
8142
8102
8186
8088
8198
8102
8164
8167
8105
8228
8036
8278
7991
8283
8000
8246
8045
8184
8121
8127
8195
8088
8245
8087
8247
8111
8200
8175
8126
8212
8080
8241
8058
8221
8081
8173
8148
8097
8199
8019
8257
7986
8271
8000
8241
8042
8177
8108
8118
8169
8085
8194
8083
8179
8120
8118
8184
8068
8254
8027
8282
8029
8254
8059
8202
8133
8141
8204
8076
8263
8050
8278
8056
8218
8082
8144
8146
8116
8209
8103
8230
8118
8192
8161
8126
8207
8035
8269
7995
8287
7999
8267
8040
8213
8110
8150
8176
8080
8210
8073
8224
8103
8187
8152
8124
8215
8074
8255
8058
8247
8078
8207
8153
8132
8201
8053
8257
8009
8283
8018
8274
8065
8215
8116
8160
8192
8116
8234
8112
8205
8139
8146
8195
8067
8243
8023
8273
8003
8253
8036
8206
8097
8142
8169
8068
8217
8033
8231
8042
8211
8079
8153
8143
8099
8199
8062
8205
8072
8177
8125
8126
8186
8043
8237
7988
8279
7987
8274
8022
8227
8091
8176
8173
8118
8218
8088
8224
8103
8187
8162
8122
8217
8076
8269
8055
8274
8072
8228
8122
8149
8182
8071
8239
8023
8276
8008
8260
8036
8200
8097
8151
8170
8103
8190
8089
8187
8114
8144
8177
8072
8230
8006
8268
7981
8265
8011
8232
8068
8166
8154
8110
8217
8070
8260
8078
8242
8102
8182
8158
8115
8230
8088
8256
8086
8215
8127
8140
8172
8056
8223
8002
8269
7986
8274
8012
8237
8070
8168
8138
8104
8183
8074
8187
8087
8153
8126
8101
8196
8057
8256
8021
8265
8030
8225
8077
8167
8157
8101
8226
8046
8280
8044
8282
8069
8233
8123
8174
8186
8123
8231
8108
8213
8123
8165
8169
8079
8228
8021
8274
7989
8284
7998
8232
8045
8177
8126
8117
8193
8068
8219
8063
8209
8099
8160
8148
8106
8216
8078
8259
8077
8230
8108
8169
8158
8099
8228
8034
8279
8004
8297
8025
8259
8080
8205
8151
8132
8178
8086
8191
8100
8193
8163
8137
8214
8076
8278
8035
8288
8016
8246
8059
8184
8128
8115
8196
8054
8241
8030
8254
8048
8209
8085
8132
8140
8093
8180
8065
8197
8090
8166
8151
8092
8207
8029
8269
7992
8291
7998
8267
8060
8220
8140
8166
8203
8101
8222
8074
8206
8104
8157
8152
8109
8216
8063
8248
8038
8228
8063
8183
8126
8106
8209
8052
8274
8037
8305
8039
8270
8072
8210
8138
8136
8187
8104
8205
8090
8178
8127
8123
8191
8058
8262
8015
8283
8010
8266
8044
8219
8119
8156
8195
8096
8240
8063
8258
8066
8225
8110
8157
8170
8103
8227
8086
8221
8084
8190
8132
8113
8194
8034
8243
7992
8284
7989
8279
8026
8220
8088
8150
8153
8086
8192
8071
8183
8090
8150
8143
8099
8211
8051
8253
8023
8246
8051
8199
8109
8138
8178
8063
8249
8035
8294
8054
8287
8080
8221
8131
8157
8192
8111
8226
8100
8199
8133
8151
8196
8074
8247
8018
8280
8000
8281
8030
8230
8083
8158
8164
8087
8204
8052
8220
8049
8194
8090
8140
8149
8085
8201
8056
8218
8064
8192
8111
8131
8178
8057
8254
8022
8294
8009
8295
8043
8257
8106
8192
8170
8128
8212
8106
8227
8122
8195
8179
8118
8229
8056
8270
8024
8269
8030
8214
8070
8153
8163
8095
8224
8039
8250
8013
8241
8044
8193
8101
8140
8181
8098
8220
8088
8196
8121
8157
8190
8086
8249
8031
8291
7998
8297
8014
8262
8086
8199
8165
8129
8204
8074
8215
8074
8206
8115
8169
8194
8114
8241
8069
8256
8059
8203
8081
8140
8154
8062
8213
8009
8253
7981
8262
8000
8220
8061
8164
8119
8110
8181
8083
8190
8102
8170
8158
8115
8226
8066
8284
8027
8287
8028
8243
8071
8173
8141
8114
8208
8055
8240
8039
8249
8073
8210
8114
8130
8165
8096
8210
8085
8212
8119
8184
8180
8112
8240
8029
8285
7999
8291
8004
8260
8057
8200
8136
8139
8199
8092
8223
8086
8201
8119
8149
8173
8088
8215
8044
8246
8041
8223
8073
8175
8148
8112
8210
8041
8279
8012
8291
8034
8250
8081
8195
8151
8138
8210
8114
8232
8121
8196
8165
8114
8205
8045
8256
8001
8278
7998
8241
8036
8181
8106
8116
8175
8053
8228
8046
8247
8072
8202
8116
8134
8164
8092
8226
8090
8232
8109
8191
8151
8108
8212
8035
8276
7996
8301
8011
8281
8060
8223
8134
8167
8191
8115
8223
8105
8216
8132
8170
8187
8106
8246
8052
8261
8026
8231
8053
8180
8116
8121
8190
8047
8236
8006
8264
8026
8248
8066
8185
8111
8112
8159
8070
8174
8077
8165
8116
8108
8191
8051
8251
8005
8293
8011
8286
8045
8236
8128
8178
8195
8122
8248
8080
8256
8093
8221
8135
8168
8204
8109
8250
8079
8236
8078
8192
8140
8121
8193
8047
8252
7997
8277
7984
8260
8024
8204
8080
8149
8154
8089
8185
8072
8172
8099
8137
8156
8075
8215
8031
8264
8014
8248
8036
8207
8102
8154
8183
8081
8244
8044
8270
8033
8246
8073
8194
8138
8135
8194
8098
8209
8083
8177
8111
8138
8197
8078
8283
8031
8309
8015
8301
8043
8255
8112
8187
8163
8102
8204
8067
8220
8070
8194
8115
8135
8183
8089
8238
8061
8263
8075
8218
8122
8154
8190
8076
8248
8029
8288
8007
8274
8025
8219
8083
8167
8165
8125
8210
8108
8219
8130
8174
8178
8098
8231
8038
8272
8003
8274
8020
8224
8073
8166
8152
8096
8214
8042
8238
8032
8238
8071
8193
8126
8121
8165
8071
8194
8069
8184
8106
8144
8177
8067
8230
8007
8285
7990
8302
8025
8264
8096
8208
8168
8150
8226
8097
8238
8099
8217
8148
8170
8204
8099
8251
8062
8273
8051
8223
8091
8169
8163
8092
8221
8033
8276
8006
8273
8026
8228
8089
8172
8153
8113
8198
8088
8177
8095
8149
8147
8085
8212
8038
8267
7997
8275
8010
8240
8068
8196
8154
8147
8223
8088
8267
8063
8251
8095
8213
8147
8150
8211
8098
8241
8090
8219
8104
8159
8153
8077
8215
8017
8280
7989
8287
7996
8237
8039
8181
8103
8112
8173
8074
8195
8065
8182
8114
8135
8191
8094
8251
8057
8274
8048
8243
8074
8193
8149
8131
8235
8066
8286
8041
8296
8061
8269
8111
8215
8190
8151
8237
8124
8230
8127
8196
8177
8117
8218
8042
8265
7986
8279
7996
8243
8032
8189
8111
8132
8171
8072
8216
8046
8224
8066
8166
8115
8105
8171
8073
8228
8062
8220
8079
8171
8146
8105
8213
8037
8262
8003
8287
8012
8276
8059
8220
8138
8165
8193
8114
8218
8111
8209
8145
8164
8198
8079
8228
8022
8263
8009
8239
8043
8190
8119
8119
8183
8048
8224
8009
8249
8022
8210
8069
8166
8137
8113
8194
8085
8200
8089
8169
8140
8106
8194
8043
8269
8001
8293
8012
8296
8054
8249
8138
8189
8197
8111
8226
8083
8248
8114
8215
8166
8146
8215
8091
8256
8061
8242
8072
8196
8137
8136
8204
8047
8248
8006
8279
8000
8258
8030
8198
8094
8145
8155
8082
8174
8073
8163
8106
8126
8167
8061
8214
8013
8270
8009
8262
8046
8223
8121
8168
8198
8111
8256
8069
8276
8066
8252
8102
8196
8173
8144
8232
8102
8223
8097
8198
8131
8133
8187
8047
8245
8005
8285
7990
8281
8020
8225
8080
8168
8163
8107
8212
8076
8209
8083
8161
8123
8107
8182
8055
8237
8022
8221
8030
8191
8102
8138
8179
8072
8250
8037
8298
8038
8286
8058
8232
8117
8182
8190
8130
8239
8122
8219
8144
8177
8198
8096
8244
8039
8296
8013
8290
8026
8231
8083
8180
8165
8109
8227
8057
8236
8046
8210
8084
8155
8131
8104
8178
8066
8208
8063
8190
8099
8133
8168
8058
8238
8009
8296
8009
8307
8041
8262
8093
8199
8163
8138
8218
8105
8237
8121
8199
8152
8130
8210
8065
8241
8015
8235
8028
8216
8078
8164
8158
8083
8214
8020
8268
8009
8264
8042
8221
8093
8162
8161
8101
8201
8085
8188
8098
8143
8155
8069
8208
8014
8266
7996
8281
8010
8243
8063
8192
8152
8140
8218
8090
8243
8080
8249
8125
8218
8190
8146
8251
8103
8262
8089
8231
8124
8178
8180
8106
8251
8044
8302
8008
8304
8025
8257
8066
8185
8125
8097
8162
8067
8175
8085
8159
8117
8100
8191
8053
8246
8006
8260
8015
8241
8059
8183
8146
8120
8223
8063
8267
8043
8278
8058
8230
8108
8179
8186
8131
8231
8097
8217
8114
8168
8164
8095
8212
8031
8267
7998
8289
7996
8246
8042
8193
8108
8132
8173
8072
8212
8064
8203
8094
8160
8142
8110
8211
8067
8252
8056
8224
8073
8173
8161
8126
8240
8064
8303
8046
8322
8046
8296
8084
8213
8148
8155
8198
8110
8226
8100
8189
8133
8130
8197
8064
8263
8018
8286
8015
8258
8058
8208
8127
8138
8184
8060
8220
8029
8247
8036
8203
8088
8149
8148
8094
8190
8074
8208
8092
8181
8141
8095
8192
8029
8250
7994
8303
8009
8295
8054
8239
8140
8182
8193
8116
8231
8101
8246
8126
8195
8178
8122
8225
8061
8252
8036
8228
8061
8189
8124
8123
8194
8051
8255
8010
8281
8016
8259
8057
8199
8116
8133
8162
8082
8182
8088
8179
8119
8129
8183
8058
8244
8020
8288
8009
8282
8044
8233
8124
8176
8195
8112
8252
8071
8269
8084
8248
8131
8193
8193
8132
8246
8089
8228
8089
8193
8130
8137
8207
8076
8268
8011
8293
7994
8279
8021
8219
8086
8165
8162
8091
8194
8071
8175
8078
8140
8132
8092
8203
8043
8239
8009
8229
8029
8201
8100
8143
8185
8096
8267
8057
8297
8037
8276
8075
8224
8133
8165
8200
8121
8227
8099
8194
8141
8140
8184
8060
8233
8010
8275
7994
8277
8017
8229
8070
8164
8151
8090
8198
8053
8211
8046
8197
8090
8142
8150
8098
8212
8066
8228
8069
8200
8112
8147
8198
8087
8282
8042
8312
8024
8306
8039
8250
8100
8189
8169
8127
8218
8114
8235
8125
8192
8171
8118
8218
8055
8256
8020
8269
8032
8222
8093
8158
8154
8100
8212
8029
8247
8021
8250
8049
8200
8111
8126
8160
8090
8187
8081
8195
8107
8152
8177
8076
8237
8030
8290
8010
8307
8043
8279
8109
8219
8173
8146
8221
8098
8249
8093
8238
8124
8173
8186
8105
8233
8061
8228
8049
8208
8085
8150
8154
8078
8225
8026
8274
7996
8283
8018
8228
8058
8167
8119
8110
8177
8081
8180
8096
8172
8166
8112
8223
8065
8275
8024
8289
8027
8255
8077
8200
8161
8138
8229
8076
8258
8053
8268
8075
8229
8139
8174
8193
8104
8229
8084
8204
8091
8159
8152
8083
8228
8031
8279
7994
8294
8001
8251
8045
8193
8131
8137
8182
8078
8196
8061
8177
8093
8139
8154
8084
8211
8044
8250
8042
8231
8084
8182
8156
8131
8230
8068
8299
8040
8300
8041
8267
8085
8200
8160
8160
8219
8117
8227
8116
8183
8158
8114
8204
8052
8266
8017
8286
8003
8249
8042
8204
8116
8130
8179
8063
8217
8040
8234
8056
8189
8109
8123
8153
8077
8205
8058
8204
8081
8174
8146
8110
8207
8032
8281
8011
8314
8026
8297
8070
8241
8140
8173
8201
8121
8230
8107
8226
8128
8171
8185
8096
8221
8043
8259
8031
8241
8062
8200
8124
8127
8199
8056
8241
8019
8276
8027
8251
8069
8186
8119
8116
8165
8084
8197
8090
8169
8125
8110
8195
8052
8265
8020
8308
8019
8295
8066
8247
8133
8178
8187
8101
8238
8077
8265
8112
8247
8153
8181
8224
8129
8263
8085
8233
8076
8188
8135
8122
8200
8046
8247
8004
8279
7990
8265
8029
8208
8091
8155
8162
8092
8193
8080
8194
8104
8138
8165
8082
8218
8032
8260
8022
8257
8039
8216
8116
8153
8187
8073
8234
8024
8256
8027
8248
8077
8201
8144
8165
8211
8116
8241
8112
8208
8152
8145
8204
8072
8277
8030
8304
8002
8294
8030
8239
8084
8172
8160
8099
8208
8067
8216
8074
8190
8117
8133
8180
8079
8225
8045
8226
8055
8197
8117
8137
8195
8069
8266
8038
8303
8016
8289
8050
8242
8103
8180
8178
8134
8217
8106
8207
8120
8168
8167
8092
8220
8036
8268
8009
8273
8019
8226
8080
8160
8149
8080
8204
8023
8227
8018
8207
8048
8171
8114
8125
8188
8087
8212
8073
8188
8100
8141
8179
8080
8253
8032
8313
8025
8321
8056
8281
8121
8218
8173
8153
8225
8108
8258
8114
8222
8147
8166
8208
8085
8245
8046
8243
8048
8217
8088
8146
8155
8073
8222
8019
8267
8005
8267
8034
8217
8077
8159
8133
8103
8192
8085
8188
8114
8169
8163
8092
8211
8028
8267
8004
8291
8034
8265
8085
8209
8160
8134
8226
8076
8268
8064
8255
8099
8214
8151
8146
8210
8103
8236
8085
8213
8103
8163
8166
8082
8221
8024
8271
7988
8282
8007
8254
8065
8205
8132
8131
8184
8082
8208
8088
8197
8129
8140
8190
8071
8216
8017
8249
8025
8233
8080
8194
8158
8118
8219
8045
8251
8005
8254
8022
8229
8099
8213
8217
8191
8248
8123
8220
8102
8172
8160
8113
8233
8057
8277
8005
8291
8001
8251
8051
8203
8112
8120
8175
8069
8218
8058
8234
8070
8164
8116
8121
8197
8088
8257
8079
8237
8098
8183
8151
8117
8231
8053
8294
8026
8312
8025
8277
8056
8210
8108
8146
8189
8105
8214
8098
8194
8126
8123
8179
8073
8226
8017
8242
7979
8192
8007
8159
8111
8122
8202
8085
8274
8063
8299
8061
8260
8112
8215
8187
8143
8232
8113
8241
8111
8161
8108
8065
8149
7989
8213
8000
8333
8064
8340
8093
8262
8137
8163
8175
8099
8234
8087
8254
8118
8217
8177
8167
8247
8114
8273
8061
8228
8061
8161
8110
8098
8160
7989
8178
7907
8166
7926
8234
8078
8310
8214
8226
8261
8154
8201
8058
8141
8091
8115
8163
8054
8222
8018
8264
8001
8245
8033
8213
8118
8175
8236
8131
8250
8034
8259
8028
8207
8095
8222
8233
8254
8310
8115
8169
8010
8074
8013
7984
8088
8037
8344
8115
8379
8038
8305
8045
8237
8093
8165
8170
8104
8216
8107
8235
8067
8130
8091
8084
8159
8044
8226
8038
8244
8056
8178
8077
8132
8230
8137
8343
8111
8398
8143
8388
8141
8292
8163
8195
8202
8120
8208
8117
8221
8156
8179
8195
8071
8209
7984
8244
7982
8271
8017
8213
8078
8159
8163
8088
8210
8014
8151
7943
8127
8057
8176
8177
8120
8213
8067
8135
7946
8005
7924
8009
8169
8133
8337
8154
8467
8142
8398
8060
8182
8014
8143
8133
8132
8241
8124
8252
8112
8199
8144
8136
8255
8118
8329
8098
8280
8010
8136
7993
8050
8125
8132
8383
8214
8366
8012
8206
7989
8169
8143
8310
8389
8335
8341
8140
8140
8010
8054
8109
8036
8144
7882
8149
7961
8338
8119
8316
8121
8212
8196
8196
8319
8136
8250
8018
8110
7980
8079
8095
8083
8235
8158
8312
8126
8259
8154
8174
8222
8147
8277
8008
8244
7967
8251
7992
8228
8054
8172
8156
8149
8229
8129
8263
8165
8293
8284
8228
8287
8097
8266
8027
8226
7974
8159
8012
8141
8166
8141
8263
8060
8254
8020
8255
8048
8226
8123
8189
8200
8112
8220
8120
8235
8103
8118
8141
8080
8233
8050
8296
8003
8276
7962
8148
7919
8096
8122
8183
8363
8256
8365
8112
8149
7955
7989
7991
7948
8037
7918
8142
8074
8282
8173
8216
8180
8117
8283
8103
8327
7985
8207
7923
8173
8078
8306
8243
8199
8263
8138
8165
8027
8114
8127
8200
8366
8205
8340
8035
8186
7871
8030
7856
8111
8301
8369
8431
8185
8278
8021
8245
8014
8077
7910
7981
8031
8044
8272
8213
8330
8176
8220
8253
8198
8288
8083
8332
8054
8341
8064
8341
8078
8207
8182
8282
8337
8170
8231
8054
8166
8078
8171
8175
8117
8249
8054
8220
7996
8114
7969
8168
8206
8169
8212
8012
8238
8033
8366
8115
8310
8035
8093
7989
7947
8041
8117
8385
8271
8202
8076
8071
8178
8037
8213
7945
8210
7990
8290
8109
8253
8139
8134
8191
8114
8300
8082
8246
8046
8264
8208
8275
8243
8086
8125
7984
8096
7958
8035
8065
8156
8350
8122
8269
8016
8291
7932
8175
7953
8163
8099
8164
8182
8099
8190
8059
8229
8111
8125
8111
8048
8173
8062
8300
8057
8222
8066
8244
8190
8209
8224
8057
8269
8073
8336
8056
8268
8012
8145
8125
8200
8228
8119
8190
8091
8212
8166
8162
8221
8080
8270
8025
8306
8033
8304
8062
8247
8128
8179
8190
8130
8261
8085
8232
8035
8192
8122
8182
8184
8081
8185
8051
8205
8082
8219
8171
8184
8239
8077
8255
8004
8304
8051
8350
8076
8210
8037
8081
8104
8152
8345
8285
8368
8196
8150
8087
8021
8183
8048
8281
8065
8248
7989
8147
8040
8123
8154
8056
8232
8042
8291
8026
8207
8016
8162
8106
8131
8145
8047
8167
8097
8218
8198
8176
8170
8012
8193
7980
8271
7979
8291
8052
8262
8118
8200
8183
8134
8241
8099
8261
8115
8247
8188
8316
8339
8212
8240
7969
8056
7896
8054
8007
8053
8083
7973
8249
8210
8533
8142
8264
7909
8076
7946
8052
8065
8096
8204
8090
8187
8103
8204
8178
8104
8266
8117
8334
8100
8346
8057
8226
8090
8216
8237
8218
8367
8155
8337
8080
8241
8029
8136
8100
8162
8219
8106
8183
8057
8191
8115
8157
8198
8101
8259
8021
8275
7983
8305
8060
8298
8103
8182
8135
8127
8208
8069
8202
8030
8114
8083
8213
8276
8200
8290
8033
8185
7966
8121
8008
8103
8156
8082
8228
8035
8288
8058
8373
8113
8295
8113
8199
8154
8098
8155
8093
8297
8276
8265
8145
8028
8105
7932
8195
8024
8321
8036
8187
7946
8087
8104
8117
8296
8166
8264
7992
8219
8123
8251
8140
8193
8324
8201
8216
8041
8198
8091
8138
8166
8120
8254
8058
8328
8051
8342
8042
8280
8050
8179
8132
8167
8231
8172
8320
8170
8272
8113
8075
8138
8091
8247
8048
8224
7987
8156
8000
8149
8169
8150
8247
8023
8206
7972
8239
7980
8172
8050
8223
8231
8158
8158
8022
8125
8101
8208
8196
8151
8208
7992
8169
7921
8300
8138
8428
8179
8234
8102
8103
8162
8046
8210
8064
8291
8129
8308
8305
8240
8119
7941
8061
7966
8155
8059
8163
8163
8168
8283
8079
8308
7992
8249
8020
8339
8100
8211
8081
8081
8153
8100
8200
8089
8260
8186
8137
8119
8034
8250
8072
8271
8036
8248
8057
8208
8217
8290
8372
8125
8217
7961
8212
8036
8273
8097
8187
8130
8114
8197
8086
8158
8056
8168
8118
8041
8150
8045
8383
8270
8540
8105
8211
7893
8008
7906
8009
8129
8088
8243
8105
8271
8085
8191
8145
8130
8120
7944
8093
8074
8433
8304
8281
8070
7970
8067
7968
8292
8074
8306
8003
8292
8107
8334
8248
8258
8261
8197
8301
8181
8294
8232
8226
8191
8022
8171
8118
8440
8159
8327
8043
8151
7990
8011
8064
8006
8227
8043
8169
7896
8134
8082
8201
8117
8034
8076
8057
8263
8188
8243
8121
8030
8104
8015
8286
8063
8347
8037
8307
8056
8267
8155
8236
8256
8194
8295
8134
8259
8087
8157
8126
8164
8249
8145
8302
8132
8302
8033
8120
8078
8136
8189
8091
8337
8092
8338
8011
8169
7940
8145
8049
8107
8117
8064
8149
8052
8184
8147
8226
8238
8098
8225
8010
8244
7990
8290
8063
8257
8102
8153
8195
8134
8263
8101
8323
8073
8190
8041
8145
8130
8118
8184
8051
8191
8069
8191
8117
8129
8197
8098
8304
8039
8281
7934
8200
7939
8145
7996
8141
8196
8284
8406
8171
8188
8003
8055
8036
8107
8206
8091
8245
8035
8248
8061
8238
8132
8164
8173
8062
8236
8020
8264
8066
8409
8218
8346
8134
8116
8084
8049
8168
8133
8336
8294
8279
8186
8021
8124
7883
8113
7915
8280
8059
8249
8049
8153
8141
8110
8199
8023
8192
8032
8261
8153
8271
8208
8107
8164
8054
8202
8062
8202
8142
8204
8251
8154
8322
8098
8371
8057
8312
8060
8319
8132
8189
8104
8083
8208
8141
8245
8088
8119
8064
8126
8269
8161
8318
8029
8199
7966
8179
8035
8141
8150
8108
8231
8033
8251
8018
8267
8043
8213
8102
8184
8197
8204
8285
8104
8151
8048
8076
8110
8087
8238
8033
8283
8031
8359
8090
8339
8099
8177
8109
8116
8224
8143
8290
8075
8164
8023
8126
8145
8147
8245
8094
8242
8009
8112
8019
8127
8155
8114
8251
8036
8257
7998
8296
8019
8276
8107
8269
8221
8204
8235
8105
8172
8009
8067
8062
8082
8164
8041
8276
8072
8288
8022
8229
8089
8206
8137
8132
8278
8158
8299
8028
8263
8075
8255
8107
8199
8253
8210
8227
8027
8108
8025
8109
8158
8158
8245
8024
8276
8049
8392
8141
8392
8086
8107
7976
7980
8052
8023
8184
8032
8186
8080
8078
8023
8052
8253
8171
8353
8091
8204
8038
8153
8142
8119
8279
8141
8328
8041
8302
8028
8307
8120
8224
8087
8073
8110
8068
8250
8158
8151
8056
8076
8231
8136
8268
8002
8310
8055
8255
8047
8284
8305
8333
8264
8030
8182
8004
8219
8021
8189
8104
8209
8254
8196
8247
8066
8174
8068
8163
8148
8131
8252
8087
8273
8012
8366
8179
8506
8156
8185
8041
8093
8095
8005
8127
8033
8175
8082
8155
8152
8116
8208
8062
8250
8035
8295
8138
8234
8102
8045
8094
7970
8218
8030
8268
8014
8284
8087
8222
8128
8158
8195
8113
8203
8087
8161
8080
8068
8131
8073
8307
8140
8453
8118
8277
7977
8142
8034
8169
8231
8186
8311
8062
8217
8062
8242
8128
8160
8148
8119
8255
8081
8197
8028
8125
8062
8071
8195
8113
8322
8033
8262
7941
8223
7997
8224
8132
8180
8130
8099
8283
8243
8341
8067
8024
8020
8026
8186
8039
8241
8030
8255
8066
8253
8177
8245
8281
8169
8287
8021
8231
8010
8284
8088
8225
8113
8133
8237
8246
8370
8207
8228
8109
8094
8106
7997
8179
7978
8286
8027
8300
8033
8239
8049
8118
8117
8112
8257
8105
8222
8031
8188
8109
8214
8225
8139
8264
8069
8161
7993
8170
8137
8204
8244
8124
8269
8019
8290
8015
8309
8053
8297
8144
8222
8191
8149
8207
8079
8156
8093
8197
8233
8252
8365
8067
8156
7907
8177
7978
8199
8075
8162
8167
8102
8247
8102
8327
8099
8277
8010
8113
8045
8083
8082
7995
8136
8102
8288
8238
8280
8329
8210
8258
7896
8083
7848
8228
8043
8297
8098
8222
8183
8155
8251
8126
8247
8059
8169
8086
8138
8172
8094
8206
8055
8237
8061
8222
8116
8177
8182
8105
8239
8045
8296
7997
8267
8019
8246
8089
8193
8158
8150
8214
8112
8236
8185
8276
8176
8073
8188
8026
8216
7979
8265
8049
8278
8070
8170
8142
8138
8235
8077
8252
8040
8240
8059
8216
8142
8172
8182
8089
8189
8071
8195
8102
8173
8168
8075
8206
8024
8297
8000
8279
7987
8241
8041
8181
8094
8140
8262
8208
8320
8117
8169
8072
8117
8154
8109
8228
8052
8284
8109
8376
8233
8272
8212
8148
8173
7923
8132
7952
8270
8011
8250
8096
8232
8222
8181
8172
8053
8165
8109
8191
8146
8092
8187
8037
8263
8022
8307
8035
8272
8060
8205
8103
8122
8199
8037
8160
7987
8152
8004
8174
8146
8271
8290
8086
8167
8088
8278
8105
8151
8116
8094
8218
8050
8299
8024
8329
8043
8318
8111
8291
8201
8206
8214
8123
8251
8090
8160
8073
8144
8180
8074
8196
8022
8242
7997
8202
8032
8198
8170
8217
8336
8187
8285
7949
8156
7920
8135
8010
8165
8139
8167
8216
8101
8184
8100
8191
8157
8154
8238
8100
8315
8058
8336
8054
8324
8096
8293
8200
8227
8224
8106
8240
8092
8247
8073
8205
8090
8068
8086
8029
8244
8136
8304
8103
8125
7992
7936
8023
7952
8344
8251
8510
8111
8288
8019
8156
7986
7987
7976
7987
8233
8165
8286
8168
8123
8100
8031
8194
8042
8309
8105
8345
8126
8253
8131
8159
8218
8132
8301
8068
8295
8058
8272
8104
8226
8169
8145
8176
8105
8277
8177
8252
8159
8103
8160
8051
8307
8113
8375
8026
8278
8000
8191
8020
8105
8113
8050
8172
8039
8205
8080
8234
8211
8203
8211
8103
8233
8050
8240
8084
8224
8154
8151
8185
8058
8249
8053
8363
8099
8368
8096
8231
8046
8085
8097
8098
8213
8098
8190
8121
8144
8098
8019
8178
7999
8241
7985
8243
8033
8270
8135
8167
8161
8108
8232
8053
8261
8033
8225
8056
8181
8125
8138
8241
8153
8266
8083
8175
8087
8134
8205
8116
8280
8047
8320
8030
8326
8053
8279
8119
8195
8133
8081
8169
8049
8237
8120
8219
8098
8044
8120
8076
8271
8048
8206
7985
8165
8081
8172
8211
8128
8246
8011
8263
8018
8279
8067
8317
8163
8201
8168
8118
8244
8123
8193
8088
8123
8171
8186
8353
8116
8267
7973
8259
8023
8321
8167
8251
8168
8133
8224
8070
8251
8051
8207
8030
8163
8157
8156
8202
8064
8148
8015
8154
8080
8156
8193
8118
8261
8043
8278
7964
8248
7962
8216
8050
8205
8150
8149
8235
8164
8272
8110
8186
8111
8126
8189
8079
8242
8031
8271
8082
8351
8223
8248
8163
8077
8185
8019
8258
8050
8339
8116
8295
8089
8136
8098
8060
8117
8061
8222
8150
8228
8211
8144
8206
7984
8203
7956
8253
7990
8295
8156
8290
8155
8100
8133
8023
8188
8025
8233
8107
8214
8158
8144
8206
8082
8242
8092
8244
8129
8210
8207
8157
8261
8053
8300
8033
8332
8054
8323
8107
8236
8154
8164
8179
8076
8175
8065
8148
8069
8059
8136
8106
8352
8108
8253
7972
8198
8043
8202
8172
8186
8249
8023
8148
7925
8245
8080
8262
8061
8135
8127
8105
8191
8082
8208
8125
8223
8165
8103
8223
8075
8334
8103
8395
8073
8304
8043
8212
8124
8163
8181
8081
8208
8060
8224
8072
8143
8104
8110
8212
8081
8230
8031
8189
8035
8165
8139
8099
8174
8030
8266
8033
8310
8023
8270
8076
8246
8163
8192
8208
8124
8215
8107
8221
8167
8141
8189
8083
8264
8047
8295
8037
8291
8048
8214
8153
8192
8219
8115
8272
8049
8261
8049
8236
8063
8122
8098
8076
8177
8095
8209
8069
8190
8166
8134
8190
8044
8280
8073
8376
8020
8240
7986
8192
8079
8154
8168
8099
8202
8073
8226
8111
8202
8174
8148
8196
8037
8211
8032
8238
8072
8220
8130
8134
8203
8118
8305
8078
8354
8047
8256
8009
8187
8087
8159
8233
8135
8150
8024
8142
8109
8121
8142
8019
8197
8018
8319
8074
8332
8040
8209
8067
8160
8175
8109
8237
8067
8260
8065
8245
8107
8199
8179
8120
8173
8078
8279
8137
8269
8216
8218
8242
8097
8261
8015
8298
8041
8343
8052
8227
8051
8145
8126
8090
8193
8103
8240
8117
8207
8174
8165
8262
8094
8234
8002
8225
8021
8212
8111
8163
8159
8074
8236
8035
8276
8022
8257
8044
8230
8117
8192
8204
8130
8209
8082
8152
8084
8143
8171
8090
8265
8060
8311
8019
8301
8041
8268
8113
8211
8180
8156
8234
8084
8254
8084
8272
8125
8159
8126
8078
8159
8049
8214
8056
8189
8090
8143
8170
8081
8245
8025
8283
8002
8283
8008
8235
8083
8224
8166
8104
8139
8061
8169
8067
8186
8170
8129
8187
8038
8265
8058
8314
8059
8245
8101
8213
8214
8158
8235
8053
8253
8031
8281
8093
8259
8116
8150
8143
8096
8182
8070
8174
8064
8119
8143
8101
8271
8082
8320
8035
8304
8002
8243
8062
8257
8204
8176
8195
8075
8188
8036
8169
8054
8128
8133
8104
8210
8080
8275
8099
8257
8108
8158
8134
8112
8269
8092
8329
8032
8297
8029
8276
8082
8219
8155
8156
8204
8098
8239
8134
8197
8111
8080
8180
8064
8234
7997
8267
8034
8272
8067
8195
8127
8108
8179
8044
8230
8029
8254
8062
8222
8107
8156
8152
8105
8222
8090
8242
8129
8199
8177
8142
8252
8084
8322
8054
8347
8034
8296
8065
8240
8156
8178
8210
8125
8249
8097
8205
8089
8145
8146
8099
8188
8026
8219
8039
8248
8073
8169
8109
8108
8203
8044
8236
7990
8262
8005
8268
8089
8233
8152
8144
8172
8089
8187
8092
8176
8137
8143
8218
8099
8291
8050
8311
8032
8297
8068
8248
8144
8175
8199
8094
8237
8056
8262
8073
8220
8099
8146
8153
8093
8189
8059
8202
8087
8190
8131
8122
8229
8081
8255
7947
8238
7977
8278
8047
8221
8075
8132
8138
8082
8194
8078
8184
8084
8141
8153
8131
8257
8085
8284
8064
8288
8109
8259
8156
8170
8207
8085
8263
8055
8306
8051
8286
8087
8226
8130
8144
8177
8096
8206
8104
8197
8130
8152
8195
8080
8252
8025
8294
8011
8293
8047
8241
8112
8193
8187
8119
8221
8056
8221
8046
8190
8089
8137
8154
8092
8208
8068
8228
8077
8201
8124
8141
8198
8106
8308
8040
8314
8038
8333
8088
8288
8133
8195
8168
8109
8182
8058
8157
8059
8113
8110
8089
8205
8046
8267
8030
8283
8055
8232
8097
8163
8170
8081
8212
8023
8260
8065
8298
8079
8208
8121
8150
8190
8120
8246
8121
8224
8143
8177
8217
8129
8303
8085
8344
8051
8342
8064
8303
8119
8210
8165
8135
8206
8064
8195
8026
8136
8053
8103
8121
8059
8168
8005
8161
7960
8086
7961
8003
8025
7967
8135
7947
8207
7947
8237
7985
8202
8043
8127
8092
8069
8142
8089
8265
8201
8294
8290
8250
8367
8203
8412
8168
8439
8202
8436
8264
8355
8294
8253
8337
8167
8332
8089
8277
8088
8213
8111
8134
8155
8076
8191
8078
8206
8103
8151
8178
8120
8259
8064
8322
8044
8337
8050
8299
8098
8223
8139
8107
8150
8029
8143
8018
8144
8080
8115
8117
8036
8163
8007
8205
8012
8198
8064
8178
8168
8149
8277
8120
8357
8093
8372
8143
8385
8232
8348
8305
8283
8322
8188
8297
8172
8216
8184
8120
8210
8041
8255
7994
8270
7989
8224
8020
8170
8103
8105
8160
8037
8200
8011
8202
8033
8150
8072
8090
8124
8038
8165
8037
8179
8056
8145
8133
8074
8188
8005
8240
7973
8275
8001
8254
8031
8187
8087
8103
8133
8042
8138
8031
8140
8066
8103
8117
8043
8188
8007
8219
8009
8222
8053
8176
8117
8108
8185
8039
8236
8008
8263
8018
8229
8059
8177
8122
8118
8168
8093
8202
8105
8189
8165
8153
8227
8084
8297
8042
8316
8033
8302
8073
8265
8166
8211
8241
8138
8249
8064
8238
8081
8208
8128
8141
8184
8086
8234
8069
8221
8077
8188
8137
8125
8206
8051
8264
8011
8291
8006
8283
8051
8232
8125
8165
8179
8100
8202
8087
8206
8121
8176
8203
8121
8266
8070
8305
8062
8296
8068
8226
8128
8155
8205
8090
8259
8054
8288
8055
8272
8092
8206
8137
8139
8207
8109
8218
8107
8203
8150
8147
8212
8084
8281
8032
8314
8011
8291
8026
8226
8084
8168
8165
8102
8216
8066
8217
8079
8194
8120
8138
8190
8093
8242
8056
8243
8080
8232
8156
8176
8219
8111
8286
8053
8327
8045
8313
8066
8254
8115
8185
8176
8126
8211
8094
8189
8110
8144
8156
8087
8221
8033
8279
8026
8294
8044
8236
8104
8175
8165
8104
8220
8036
8257
8041
8243
8069
8190
8134
8135
8202
8114
8243
8108
8220
8151
8178
8218
8121
8284
8050
8316
8020
8320
8055
8283
8113
8207
8162
8125
8204
8079
8217
8085
8186
8116
8121
8168
8058
8209
8034
8243
8045
8211
8078
8136
8134
8054
8202
8014
8268
8011
8280
8038
8224
8074
8157
8126
8102
8188
8092
8216
8140
8202
8217
8163
8285
8088
8311
8046
8315
8050
8280
8111
8218
8176
8148
8228
8077
8245
8061
8246
8072
8189
8122
8120
8181
8078
8211
8065
8194
8093
8145
8155
8077
8223
8017
8277
7981
8284
8010
8253
8058
8196
8125
8116
8171
8068
8189
8072
8170
8111
8135
8192
8097
8266
8069
8298
8071
8267
8112
8224
8198
8168
8266
8090
8310
8062
8310
8070
8266
8102
8187
8164
8123
8205
8099
8213
8109
8177
8160
8105
8214
8040
8266
7991
8280
7994
8246
8036
8193
8119
8133
8190
8077
8222
8053
8228
8074
8181
8122
8114
8188
8081
8244
8078
8235
8104
8190
8153
8117
8225
8049
8287
8013
8298
8012
8282
8070
8230
8139
8165
8191
8110
8220
8113
8211
8137
8149
8199
8082
8251
8041
8288
8038
8265
8063
8210
8138
8140
8195
8067
8252
8038
8271
8039
8222
8070
8169
8137
8114
8173
8086
8217
8111
8204
8174
8157
8241
8080
8295
8039
8325
8033
8311
8064
8240
8122
8161
8176
8085
8203
8052
8201
8072
8164
8126
8124
8193
8070
8228
8052
8240
8079
8201
8123
8116
8187
8040
8238
8000
8265
7989
8251
8037
8210
8100
8146
8164
8090
8206
8111
8230
8168
8197
8230
8118
8276
8070
8329
8076
8339
8112
8288
8174
8200
8214
8126
8260
8065
8276
8064
8247
8095
8181
8145
8117
8194
8069
8200
8074
8176
8119
8122
8192
8056
8250
8011
8289
7997
8283
8020
8232
8085
8174
8157
8108
8198
8068
8203
8074
8157
8128
8116
8198
8079
8254
8051
8247
8067
8222
8131
8169
8202
8087
8259
8047
8300
8036
8283
8048
8218
8097
8155
8165
8097
8178
8082
8192
8114
8152
8177
8079
8236
8023
8289
8017
8288
8034
8241
8084
8181
8174
8131
8244
8089
8280
8081
8254
8110
8196
8171
8142
8222
8105
8260
8110
8238
8152
8175
8204
8092
8262
8054
8331
8032
8323
8048
8270
8099
8202
8159
8123
8200
8088
8208
8098
8179
8129
8110
8186
8054
8232
8010
8237
8022
8209
8071
8148
8155
8092
8220
8032
8256
8019
8266
8038
8216
8086
8160
8164
8107
8201
8108
8228
8155
8192
8206
8136
8253
8052
8304
8026
8311
8039
8267
8075
8205
8150
8133
8195
8067
8221
8047
8189
8074
8156
8138
8118
8209
8071
8243
8064
8214
8105
8177
8180
8112
8244
8039
8298
8024
8316
8039
8278
8080
8202
8149
8140
8192
8098
8212
8103
8197
8161
8141
8220
8086
8284
8054
8292
8050
8260
8090
8211
8166
8135
8226
8065
8257
8038
8267
8058
8224
8094
8151
8148
8098
8189
8081
8192
8088
8157
8153
8098
8215
8031
8273
7998
8288
7995
8259
8048
8200
8126
8141
8176
8069
8203
8051
8188
8089
8155
8150
8122
8227
8093
8276
8089
8260
8125
8213
8187
8144
8251
8068
8298
8034
8314
8041
8278
8070
8208
8121
8134
8186
8104
8226
8104
8189
8140
8125
8202
8072
8268
8030
8282
8018
8257
8050
8208
8136
8152
8204
8069
8244
8051
8266
8059
8226
8108
8175
8158
8114
8222
8092
8229
8108
8189
8165
8127
8231
8065
8290
8030
8322
8025
8295
8049
8226
8119
8153
8169
8089
8202
8066
8190
8093
8154
8137
8095
8203
8048
8241
8032
8226
8057
8185
8118
8124
8193
8054
8255
8018
8286
8023
8258
8054
8195
8102
8126
8172
8088
8192
8100
8204
8160
8161
8218
8090
8285
8050
8318
8053
8319
8077
8257
8135
8182
8202
8098
8237
8055
8243
8061
8208
8097
8148
8149
8099
8210
8077
8225
8090
8190
8134
8128
8204
8064
8263
8008
8287
7993
8283
8035
8231
8102
8175
8166
8099
8203
8093
8217
8116
8192
8179
8135
8244
8082
8292
8068
8294
8079
8245
8145
8183
8213
8104
8259
8047
8286
8031
8264
8060
8204
8118
8138
8172
8085
8185
8093
8191
8118
8140
8188
8082
8258
8032
8297
8007
8287
8030
8245
8099
8178
8171
8123
8222
8071
8248
8076
8220
8111
8171
8183
8116
8239
8092
8260
8089
8224
8137
8170
8208
8091
8273
8049
8310
8015
8293
8032
8233
8082
8173
8152
8120
8200
8093
8221
8109
8180
8161
8112
8218
8056
8271
8030
8282
8040
8233
8093
8167
8165
8105
8228
8050
8274
8035
8255
8056
8205
8116
8162
8185
8109
8227
8101
8210
8139
8169
8191
8099
8258
8044
8306
8024
8317
8039
8272
8089
8212
8164
8144
8209
8084
8230
8078
8214
8110
8148
8157
8093
8215
8056
8236
8051
8215
8091
8166
8164
8098
8228
8031
8291
8011
8285
8029
8244
8074
8186
8145
8121
8190
8094
8206
8111
8188
8174
8134
8235
8077
8282
8032
8303
8047
8284
8107
8218
8168
8146
8224
8074
8249
8041
8246
8064
8200
8110
8139
8181
8091
8207
8077
8204
8098
8167
8164
8097
8227
8029
8283
7999
8294
8001
8264
8054
8197
8121
8128
8176
8082
8207
8077
8201
8121
8168
8183
8107
8236
8067
8262
8044
8240
8085
8189
8159
8124
8225
8061
8297
8052
8328
8068
8289
8093
8212
8156
8141
8209
8119
8238
8130
8204
8167
8125
8214
8063
8272
8012
8289
8009
8261
8051
8215
8134
8140
8191
8069
8230
8041
8242
8062
8203
8105
8142
8181
8105
8236
8082
8236
8107
8186
8159
8128
8231
8065
8300
8020
8314
8017
8289
8054
8221
8104
8155
8177
8092
8194
8072
8198
8113
8150
8174
8099
8221
8047
8264
8037
8251
8062
8205
8131
8128
8205
8071
8256
8034
8285
8033
8250
8063
8184
8125
8120
8180
8095
8208
8108
8193
8156
8150
8224
8087
8298
8053
8328
8049
8318
8073
8260
8144
8187
8191
8096
8222
8062
8242
8076
8211
8113
8139
8177
8086
8219
8063
8223
8079
8190
8136
8130
8202
8051
8259
8013
8300
8002
8278
8032
8218
8087
8155
8164
8103
8204
8095
8209
8131
8182
8194
8120
8258
8070
8291
8052
8288
8078
8244
8147
8176
8203
8110
8254
8042
8278
8039
8256
8071
8195
8124
8128
8181
8086
8207
8089
8191
8131
8132
8190
8068
8259
8025
8297
7992
8267
8014
8219
8079
8161
8158
8098
8198
8058
8237
8076
8208
8129
8152
8207
8122
8267
8091
8270
8086
8228
8147
8177
8226
8113
8283
8053
8327
8037
8297
8039
8228
8080
8154
8158
8108
8196
8095
8204
8119
8172
8178
8094
8233
8052
8278
8018
8277
8046
8246
8113
8181
8172
8108
8233
8055
8249
8033
8245
8072
8187
8118
8126
8190
8100
8237
8100
8215
8138
8163
8198
8091
8268
8043
8326
8028
8320
8034
8258
8078
8189
8155
8112
8193
8069
8206
8078
8194
8120
8133
8185
8084
8238
8053
8264
8057
8221
8107
8169
8175
8098
8240
8037
8287
8016
8283
8034
8233
8090
8170
8160
8121
8206
8099
8215
8129
8180
8185
8113
8237
8047
8283
8025
8306
8052
8272
8109
8210
8168
8130
8223
8074
8248
8048
8234
8065
8181
8125
8128
8198
8089
8219
8076
8209
8111
8168
8180
8089
8242
8040
8291
8008
8303
8020
8252
8059
8187
8126
8128
8184
8083
8208
8091
8202
8142
8165
8206
8106
8265
8070
8288
8068
8270
8133
8225
8199
8147
8252
8073
8298
8035
8293
8048
8242
8094
8180
8167
8129
8204
8100
8203
8110
8176
8168
8107
8222
8051
8281
8013
8291
8018
8254
8052
8199
8126
8133
8182
8069
8220
8055
8231
8082
8197
8147
8140
8210
8095
8249
8084
8236
8103
8192
8176
8133
8252
8064
8301
8023
8317
8026
8278
8064
8202
8126
8136
8172
8082
8196
8080
8182
8119
8135
8193
8077
8249
8032
8268
8027
8245
8069
8201
8138
8129
8202
8068
8256
8031
8265
8036
8231
8091
8182
8142
8119
8208
8108
8231
8123
8202
8173
8135
8225
8063
8288
8027
8308
8017
8283
8050
8227
8128
8162
8187
8099
8231
8080
8244
8104
8197
8145
8132
8209
8083
8243
8065
8232
8081
8183
8139
8121
8205
8055
8270
8016
8299
8014
8274
8052
8211
8118
8171
8194
8128
8233
8120
8223
8151
8176
8216
8112
8275
8064
8299
8042
8288
8060
8224
8123
8155
8187
8075
8232
8037
8259
8049
8229
8081
8172
8139
8114
8193
8079
8201
8083
8172
8129
8122
8194
8044
8252
8004
8286
7989
8266
8023
8218
8081
8155
8159
8098
8208
8074
8235
8101
8198
8168
8148
8224
8094
8265
8065
8275
8087
8233
8155
8172
8219
8086
8269
8030
8289
8011
8265
8031
8206
8102
8159
8171
8104
8196
8097
8194
8123
8148
8185
8077
8241
8031
8289
8020
8297
8051
8252
8108
8173
8171
8109
8223
8060
8256
8057
8232
8097
8183
8155
8145
8243
8111
8254
8104
8221
8160
8174
8222
8103
8283
8049
8327
8023
8308
8036
8242
8080
8173
8155
8113
8201
8086
8209
8086
8165
8127
8107
8193
8062
8250
8028
8244
8046
8210
8098
8150
8175
8085
8234
8029
8275
8017
8264
8038
8218
8103
8170
8183
8128
8240
8119
8222
8152
8185
8202
8112
8261
8071
8319
8041
8317
8043
8258
8082
8183
8143
8112
8201
8058
8227
8047
8205
8080
8158
8136
8107
8204
8069
8221
8068
8206
8098
8143
8170
8082
8248
8039
8302
8012
8305
8033
8260
8088
8196
8160
8153
8216
8116
8252
8136
8216
8178
8143
8224
8089
8287
8060
8300
8061
8266
8110
8200
8173
8116
8222
8043
8255
8016
8268
8046
8215
8095
8158
8148
8092
8182
8078
8188
8096
8150
8163
8092
8223
8028
8274
8001
8296
8011
8258
8059
8188
8133
8122
8183
8070
8228
8070
8240
8117
8190
8180
8138
8252
8091
8250
8068
8236
8113
8202
8197
8141
8258
8061
8309
8019
8303
8023
8249
8061
8184
8115
8128
8184
8090
8217
8094
8158
8122
8106
8185
8048
8246
8018
8276
8020
8246
8063
8207
8147
8150
8224
8084
8264
8064
8287
8085
8255
8136
8203
8212
8156
8264
8129
8256
8129
8200
8188
8136
8244
8068
8300
8023
8313
8017
8281
8048
8213
8119
8144
8176
8084
8207
8065
8203
8098
8151
8141
8097
8206
8058
8249
8045
8231
8073
8184
8140
8119
8212
8049
8261
8008
8277
8012
8261
8062
8204
8124
8153
8192
8112
8227
8115
8207
8159
8151
8214
8084
8277
8045
8307
8039
8295
8072
8233
8132
8155
8191
8076
8237
8050
8244
8051
8209
8093
8149
8154
8097
8188
8068
8210
8078
8175
8141
8121
8191
8034
8260
8006
8303
8014
8289
8045
8230
8100
8163
8173
8102
8203
8084
8207
8113
8173
8175
8115
8226
8066
8275
8050
8279
8087
8237
8150
8162
8225
8105
8269
8037
8292
8026
8266
8072
8212
8125
8158
8186
8108
8224
8105
8202
8150
8153
8202
8087
8276
8038
8306
8025
8307
8062
8262
8133
8191
8184
8112
8223
8064
8230
8068
8217
8112
8175
8183
8116
8229
8074
8232
8080
8196
8139
8154
8213
8081
8266
8028
8299
8005
8293
8036
8224
8082
8165
8157
8106
8197
8089
8192
8094
8149
8146
8096
8212
8047
8263
8034
8271
8039
8219
8097
8154
8168
8073
8232
8039
8270
8025
8266
8066
8210
8123
8161
8204
8121
8228
8109
8208
8142
8157
8194
8088
8256
8034
8305
8023
8304
8033
8244
8081
8183
8152
8124
8216
8085
8235
8078
8215
8119
8170
8182
8103
8235
8073
8253
8079
8223
8118
8156
8181
8081
8252
8040
8308
8025
8300
8037
8236
8081
8184
8157
8130
8205
8100
8224
8112
8178
8167
8115
8236
8080
8304
8067
8322
8082
8295
8138
8218
8188
8127
8231
8054
8248
8026
8241
8045
8184
8095
8122
8155
8080
8187
8072
8186
8103
8154
8173
8090
8239
8031
8289
7996
8288
8007
8249
8060
8186
8135
8137
8197
8079
8230
8092
8216
8130
8184
8204
8123
8263
8084
8286
8087
8254
8131
8206
8188
8130
8250
8052
8286
8012
8279
8027
8242
8066
8176
8126
8114
8185
8082
8186
8097
8167
8150
8098
8203
8047
8262
8012
8287
8019
8257
8063
8205
8134
8116
8186
8048
8227
8042
8247
8081
8222
8146
8190
8221
8133
8259
8102
8239
8144
8207
8203
8156
8280
8089
8329
8037
8329
8029
8285
8061
8212
8127
8147
8184
8099
8220
8082
8197
8108
8143
8168
8084
8227
8051
8256
8032
8234
8068
8186
8134
8118
8205
8051
8249
8016
8269
8023
8236
8065
8194
8151
8143
8207
8112
8229
8115
8193
8162
8141
8227
8081
8297
8043
8317
8035
8300
8059
8217
8124
8142
8182
8083
8226
8048
8235
8071
8196
8110
8126
8166
8084
8226
8061
8217
8078
8177
8142
8120
8216
8052
8271
8006
8299
8008
8274
8042
8213
8109
8159
8188
8122
8227
8121
8242
8150
8181
8200
8114
8265
8074
8295
8058
8284
8074
8222
8141
8154
8208
8074
8248
8034
8276
8035
8252
8088
8200
8139
8134
8199
8103
8209
8092
8189
8146
8134
8199
8051
8243
8000
8277
7973
8256
8016
8212
8085
8155
8166
8096
8215
8069
8241
8094
8225
8156
8179
8209
8105
8258
8087
8265
8101
8229
8165
8160
8211
8076
8257
8021
8295
8010
8284
8046
8227
8107
8168
8163
8105
8195
8086
8195
8117
8148
8172
8091
8239
8048
8278
8023
8283
8044
8235
8115
8169
8175
8087
8232
8040
8271
8048
8254
8082
8204
8151
8144
8210
8113
8239
8106
8213
8155
8171
8223
8103
8297
8047
8317
8023
8314
8042
8253
8086
8176
8148
8092
8181
8056
8197
8066
8169
8101
8112
8186
8085
8243
8065
8262
8072
8234
8131
8173
8197
8108
8268
8045
8304
8033
8299
8067
8248
8115
8191
8186
8141
8222
8111
8219
8125
8178
8188
8110
8245
8059
8297
8034
8296
8034
8244
8096
8176
8149
8106
8202
8049
8237
8041
8235
8066
8175
8114
8109
8167
8077
8206
8071
8199
8102
8145
8172
8075
8236
8021
8288
7999
8290
8018
8245
8063
8193
8137
8127
8198
8098
8242
8105
8214
8145
8168
8207
8101
8272
8065
8287
8076
8261
8122
8198
8178
8117
8230
8040
8272
8013
8278
8040
8226
8086
8175
8139
8104
8185
8078
8188
8102
8171
8176
8118
8242
8063
8301
8027
8298
8026
8275
8082
8214
8146
8139
8209
8086
8250
8072
8250
8101
8204
8149
8138
8208
8091
8247
8093
8241
8135
8202
8188
8121
8245
8055
8297
8005
8295
8008
8257
8054
8201
8130
8148
8187
8099
8203
8092
8187
8121
8128
8188
8078
8247
8035
8269
8033
8245
8074
8197
8141
8115
8198
8041
8245
8032
8282
8057
8257
8104
8194
8173
8135
8213
8111
8220
8115
8193
8183
8143
8249
8071
8304
8033
8316
8028
8288
8059
8214
8119
8150
8180
8081
8221
8066
8225
8077
8163
8114
8109
8184
8071
8217
8053
8223
8086
8180
8144
8119
8209
8046
8261
8001
8287
8009
8268
8050
8210
8136
8161
8197
8125
8236
8107
8201
8138
8155
8209
8098
8275
8064
8319
8061
8308
8090
8243
8149
8163
8207
8073
8241
8045
8274
8046
8222
8077
8162
8129
8104
8197
8090
8214
8101
8185
8137
8122
8201
8053
8276
8016
8306
8007
8282
8027
8219
8092
8159
8169
8105
8225
8092
8247
8114
8209
8174
8144
8223
8093
8274
8081
8278
8103
8229
8157
8159
8215
8080
8261
8018
8293
8016
8274
8058
8214
8102
8154
8168
8091
8197
8089
8180
8117
8134
8176
8069
8232
8018
8281
8011
8282
8045
8244
8112
8162
8173
8088
8228
8053
8265
8066
8263
8117
8212
8195
8152
8249
8119
8261
8112
8227
8169
8177
8238
8098
8278
8040
8313
8010
8292
8028
8233
8078
8166
8146
8093
8190
8074
8202
8082
8159
8130
8112
8204
8074
8263
8049
8256
8060
8224
8118
8162
8187
8100
8239
8032
8276
8019
8269
8055
8219
8117
8173
8183
8118
8214
8104
8200
8123
8170
8196
8106
8262
8053
8301
8018
8302
8033
8241
8074
8163
8149
8105
8203
8059
8228
8051
8211
8089
8172
8142
8108
8202
8071
8223
8069
8203
8120
8158
8188
8078
8247
8021
8284
8000
8290
8018
8242
8078
8199
8165
8150
8221
8109
8228
8104
8182
8142
8131
8220
8088
8288
8063
8299
8063
8261
8115
8192
8171
8111
8232
8049
8272
8038
8268
8053
8210
8094
8155
8149
8104
8203
8089
8208
8120
8169
8169
8094
8240
8050
8302
8018
8310
8022
8256
8067
8191
8143
8133
8204
8086
8239
8095
8254
8125
8198
8178
8129
8241
8092
8269
8085
8250
8131
8189
8178
8113
8235
8037
8288
8005
8289
8029
8266
8078
8196
8147
8135
8188
8097
8220
8098
8179
8136
8115
8198
8062
8261
8037
8296
8045
8265
8084
8198
8150
8123
8192
8047
8237
8029
8259
8059
8223
8114
8174
8181
8122
8228
8092
8223
8124
8204
8188
8132
8248
8055
8291
8006
8294
8008
8261
8055
8217
8134
8157
8181
8077
8213
8075
8203
8103
8160
8151
8112
8215
8067
8252
8059
8241
8088
8193
8159
8130
8217
8052
8263
8007
8286
8021
8241
8066
8207
8150
8171
8214
8127
8244
8132
8210
8171
8160
8222
8092
8287
8047
8297
8024
8271
8053
8210
8117
8135
8188
8071
8229
8046
8254
8063
8218
8107
8153
8174
8101
8218
8076
8213
8083
8174
8143
8118
8205
8047
8263
7998
8294
7995
8274
8037
8229
8115
8177
8197
8142
8246
8121
8248
8141
8193
8177
8128
8258
8092
8296
8073
8283
8085
8222
8140
8155
8208
8070
8263
8039
8289
8031
8258
8058
8199
8112
8136
8174
8093
8192
8089
8185
8126
8125
8192
8072
8247
8012
8282
8001
8262
8028
8221
8100
8158
8172
8089
8226
8068
8261
8089
8239
8128
8177
8183
8113
8238
8086
8241
8094
8217
8150
8153
8224
8074
8260
8017
8290
7996
8281
8032
8231
8090
8167
8163
8100
8202
8092
8208
8109
8158
8162
8102
8211
8047
8257
8030
8262
8050
8223
8110
8155
8176
8076
8239
8038
8272
8040
8277
8078
8223
8138
8169
8192
8111
8234
8110
8206
8148
8171
8214
8098
8281
8043
8309
8010
8290
8027
8235
8077
8164
8136
8081
8193
8065
8251
8103
8255
8153
8194
8197
8113
8247
8085
8263
8086
8221
8139
8166
8202
8091
8253
8026
8291
8008
8284
8034
8243
8093
8190
8169
8132
8219
8106
8229
8119
8179
8176
8114
8231
8061
8278
8036
8289
8046
8238
8083
8169
8158
8097
8217
8048
8266
8041
8247
8060
8194
8114
8124
8158
8069
8184
8066
8185
8110
8151
8186
8087
8247
8033
8294
8004
8297
8012
8249
8078
8193
8149
8127
8205
8091
8232
8096
8231
8137
8172
8191
8110
8252
8076
8277
8075
8237
8121
8173
8176
8096
8241
8034
8284
8008
8287
8038
8243
8089
8191
8154
8119
8189
8086
8199
8104
8168
8164
8105
8224
8045
8280
8032
8301
8044
8265
8084
8191
8153
8135
8225
8073
8275
8064
8272
8103
8233
8147
8172
8216
8120
8249
8104
8228
8134
8179
8179
8111
8253
8044
8294
8004
8289
8014
8263
8061
8201
8137
8142
8197
8101
8223
8095
8204
8118
8146
8175
8081
8217
8039
8249
8039
8219
8074
8185
8147
8104
8216
8041
8260
8021
8281
8048
8265
8098
8208
8166
8139
8215
8114
8219
8128
8203
8179
8146
8238
8068
8290
8027
8303
8025
8263
8055
8202
8133
8140
8195
8068
8233
8049
8237
8070
8195
8121
8129
8183
8079
8208
8063
8212
8082
8172
8157
8106
8222
8034
8282
8010
8308
8022
8289
8064
8229
8147
8177
8211
8134
8255
8121
8237
8145
8176
8202
8104
8265
8063
8286
8044
8260
8077
8201
8139
8124
8205
8062
8254
8029
8274
8031
8245
8071
8184
8133
8119
8190
8090
8201
8095
8171
8135
8105
8204
8053
8272
8017
8287
7998
8262
8038
8209
8112
8144
8182
8095
8235
8080
8251
8097
8204
8138
8134
8199
8095
8255
8087
8257
8117
8225
8185
8156
8233
8066
8286
8017
8296
8012
8278
8049
8218
8113
8161
8179
8104
8203
8095
8205
8129
8167
8194
8097
8255
8055
8288
8035
8268
8047
8208
8113
8139
8186
8078
8247
8043
8273
8053
8262
8106
8209
8170
8143
8214
8109
8240
8117
8215
8175
8155
8226
8079
8284
8026
8307
8002
8280
8026
8221
8085
8143
8150
8085
8202
8063
8213
8078
8170
8109
8111
8179
8065
8234
8052
8240
8072
8209
8139
8146
8199
8069
8256
8029
8299
8014
8284
8059
8230
8111
8175
8178
8115
8213
8109
8215
8143
8180
8211
8123
8280
8074
8313
8042
8296
8058
8252
8117
8177
8184
8110
8235
8060
8266
8056
8243
8078
8174
8127
8111
8186
8074
8193
8067
8182
8111
8136
8189
8068
8254
8015
8291
7994
8281
8024
8238
8091
8192
8174
8136
8234
8104
8257
8122
8214
8155
8151
8221
8104
8280
8071
8275
8077
8227
8115
8151
8175
8070
8241
8027
8283
8013
8273
8044
8220
8098
8157
8164
8105
8197
8096
8194
8115
8153
8177
8092
8248
8041
8292
8012
8284
8020
8222
8070
8162
8143
8101
8224
8067
8269
8081
8262
8118
8211
8179
8145
8225
8106
8268
8110
8234
8153
8185
8217
8100
8258
8035
8303
8016
8315
8043
8261
8092
8199
8158
8138
8205
8095
8212
8094
8178
8131
8123
8196
8067
8249
8036
8270
8054
8230
8083
8164
8164
8081
8221
8039
8273
8031
8276
8059
8242
8109
8173
8172
8118
8206
8108
8216
8130
8184
8190
8109
8245
8050
8299
8020
8307
8026
8259
8077
8192
8145
8112
8189
8053
8221
8051
8218
8084
8173
8142
8109
8204
8073
8241
8071
8218
8100
8167
8172
8085
8225
8025
8283
7994
8291
8017
8261
8081
8211
8157
8156
8215
8119
8238
8123
8213
8179
8168
8227
8095
8282
8052
8294
8060
8255
8085
8191
8146
8103
8204
8042
8246
8018
8255
8047
8221
8103
8173
8156
8109
8209
8093
8208
8111
8176
8171
8097
8228
8036
8279
7996
8287
8006
8255
8051
8206
8140
8150
8206
8107
8242
8084
8230
8104
8182
8156
8130
8243
8100
8272
8085
8254
8121
8198
8164
8117
8223
8032
8261
7993
8282
8008
8249
8052
8187
8115
8132
8184
8092
8195
8103
8185
8141
8146
8209
8080
8266
8034
8290
8028
8249
8051
8193
8124
8132
8199
8070
8248
8045
8269
8063
8227
8113
8180
8180
8125
8238
8110
8259
8144
8211
8188
8145
8253
8075
8308
8031
8322
8034
8308
8064
8232
8131
8164
8183
8090
8212
8072
8217
8096
8156
8145
8105
8214
8070
8247
8047
8235
8077
8189
8132
8118
8196
8048
8260
8008
8286
8036
8275
8085
8226
8149
8166
8201
8115
8226
8118
8208
8165
8160
8218
8084
8280
8042
8301
8015
8262
8040
8218
8110
8144
8183
8079
8230
8046
8244
8054
8212
8103
8153
8153
8102
8205
8070
8215
8084
8184
8141
8129
8211
8052
8258
7998
8286
7998
8283
8039
8236
8125
8186
8193
8125
8229
8111
8243
8131
8206
8198
8151
8261
8088
8278
8055
8264
8068
8215
8121
8131
8193
8063
8248
8018
8279
8032
8279
8073
8217
8124
8144
8180
8096
8192
8095
8183
8121
8140
8191
8070
8254
8023
8287
8008
8281
8032
8238
8107
8175
8183
8121
8237
8083
8261
8094
8247
8133
8186
8192
8125
8250
8095
8260
8095
8215
8144
8151
8199
8064
8248
8011
8288
7996
8276
8027
8230
8083
8161
8146
8107
8195
8083
8189
8106
8173
8162
8109
8222
8054
8271
8036
8271
8052
8230
8113
8171
8186
8108
8250
8063
8299
8070
8298
8106
8259
8158
8171
8194
8111
8227
8102
8204
8127
8152
8184
8086
8257
8027
8293
8007
8291
8018
8242
8072
8174
8150
8102
8190
8057
8216
8060
8205
8109
8148
8174
8096
8215
8060
8232
8055
8207
8114
8148
8176
8077
8240
8024
8294
8011
8299
8044
8258
8096
8195
8165
8128
8211
8102
8225
8127
8191
8187
8139
8243
8080
8298
8047
8304
8051
8261
8106
8199
8181
8140
8244
8072
8277
8048
8258
8066
8200
8109
8134
8157
8086
8188
8071
8191
8109
8164
8185
8095
8240
8032
8289
7998
8298
8021
8265
8079
8202
8154
8152
8220
8108
8250
8103
8235
8133
8176
8196
8121
8265
8085
8286
8078
8249
8112
8181
8164
8103
8226
8033
8283
8010
8274
8015
8229
8059
8166
8122
8104
8180
8084
8198
8097
8173
8151
8114
8210
8043
8265
8005
8278
8009
8248
8057
8196
8136
8131
8217
8084
8276
8076
8268
8087
8222
8137
8172
8205
8120
8258
8113
8252
8142
8200
8185
8126
8240
8046
8297
8015
8310
8029
8289
8069
8221
8138
8146
8184
8083
8204
8077
8193
8103
8133
8166
8083
8226
8047
8256
8043
8240
8077
8183
8148
8124
8215
8053
8265
8031
8293
8047
8270
8101
8213
8167
8144
8209
8115
8236
8129
8211
8169
8140
8223
8058
8272
8013
8284
7998
8255
8041
8207
8121
8142
8191
8077
8225
8047
8241
8075
8204
8126
8141
8184
8088
8232
8066
8214
8086
8183
8148
8124
8218
8043
8277
8015
8304
8017
8286
8067
8237
8144
8171
8189
8112
8222
8109
8214
8139
8179
8205
8120
8263
8065
8291
8053
8270
8076
8210
8133
8139
8191
8065
8254
8031
8279
8038
8257
8074
8179
8131
8128
8190
8093
8212
8105
8190
8145
8128
8208
8058
8247
7995
8280
7996
8279
8045
8242
8133
8183
8200
8129
8240
8088
8249
8094
8219
8147
8169
8213
8111
8259
8084
8246
8091
8205
8144
8138
8200
8062
8269
8019
8307
8019
8283
8045
8223
8096
8155
8160
8091
8168
8072
8183
8104
8140
8176
8096
8237
8043
8285
8023
8259
8032
8211
8105
8160
8190
8106
8253
8069
8297
8075
8273
8103
8210
8152
8147
8209
8110
8249
8115
8214
8155
8153
8208
8069
8263
8019
8292
7995
8287
8024
8226
8077
8163
8151
8094
8195
8069
8212
8073
8185
8117
8129
8185
8083
8243
8058
8254
8081
8223
8137
8165
8196
8086
8265
8038
8308
8031
8306
8074
8258
8144
8202
8196
8136
8237
8117
8225
8141
8185
8204
8122
8268
8059
8291
8022
8277
8031
8237
8076
8161
8146
8076
8203
8037
8239
8043
8239
8077
8190
8126
8120
8187
8075
8208
8077
8209
8129
8150
8180
8064
8236
8010
8283
7997
8290
8018
8251
8083
8203
8166
8149
8222
8108
8248
8115
8223
8159
8179
8233
8110
8273
8065
8265
8040
8203
8075
8159
8165
8093
8227
8029
8273
8014
8271
8033
8227
8091
8170
8164
8114
8202
8100
8201
8116
8170
8178
8100
8228
8035
8275
8001
8283
8018
8248
8073
8201
8161
8142
8230
8101
8276
8087
8261
8108
8215
8168
8145
8222
8100
8251
8086
8229
8126
8167
8174
8090
8238
8027
8287
8004
8296
8025
8261
8067
8195
8148
8141
8191
8093
8216
8095
8185
8127
8133
8201
8082
8264
8041
8271
8040
8238
8072
8178
8149
8114
8227
8062
8294
8048
8300
8069
8258
8114
8188
8182
8131
8231
8121
8233
8135
8188
8182
8112
8226
8039
8273
7996
8288
8015
8267
8062
8206
8131
8123
8181
8058
8211
8051
8224
8092
8188
8142
8121
8200
8075
8237
8067
8224
8093
8180
8160
8109
8230
8050
8289
8013
8303
8033
8283
8083
8226
8152
8162
8199
8118
8238
8121
8216
8174
8170
8227
8104
8277
8043
8282
8030
8245
8061
8192
8138
8128
8200
8057
8249
8031
8263
8047
8224
8099
8172
8150
8100
8177
8068
8190
8086
8161
8159
8110
8217
8042
8272
7999
8299
8011
8274
8063
8227
8139
8172
8212
8115
8249
8092
8244
8122
8208
8183
8149
8233
8093
8267
8075
8245
8092
8193
8155
8127
8213
8056
8270
8018
8293
8019
8268
8064
8208
8126
8155
8187
8099
8199
8090
8181
8121
8123
8192
8068
8255
8021
8279
8008
8252
8045
8207
8126
8152
8201
8096
8268
8066
8289
8083
8261
8129
8195
8189
8142
8238
8110
8234
8110
8199
8159
8125
8212
8050
8264
8006
8294
8001
8285
8043
8222
8096
8150
8174
8091
8200
8067
8193
8095
8180
8166
8125
8221
8070
8264
8055
8243
8062
8198
8133
8130
8201
8061
8261
8033
8304
8045
8294
8089
8237
8152
8176
8211
8132
8235
8116
8210
8136
8148
8196
8083
8264
8027
8284
8007
8278
8042
8224
8103
8153
8162
8070
8204
8037
8225
8043
8198
8087
8147
8147
8098
8200
8071
8227
8093
8209
8151
8144
8209
8072
8276
8029
8313
8028
8316
8072
8280
8148
8216
8211
8159
8246
8129
8262
8138
8210
8188
8134
8231
8072
8267
8034
8243
8038
8195
8099
8150
8186
8072
8236
8024
8273
8020
8260
8044
8201
8108
8136
8169
8097
8189
8093
8195
8121
8147
8184
8071
8242
8016
8278
7997
8277
8025
8239
8102
8180
8174
8128
8234
8084
8258
8081
8241
8124
8190
8195
8133
8247
8089
8253
8095
8217
8127
8146
8184
8066
8238
8019
8290
8006
8289
8029
8232
8077
8180
8160
8123
8202
8096
8188
8098
8168
8159
8106
8210
8050
8258
8020
8272
8042
8237
8109
8172
8180
8113
8251
8077
8296
8067
8291
8089
8235
8150
8182
8216
8139
8238
8114
8213
8130
8167
8182
8087
8242
8028
8291
8001
8302
8023
8257
8083
8193
8150
8127
8207
8084
8230
8078
8210
8112
8157
8179
8106
8236
8071
8260
8073
8222
8106
8160
8172
8104
8242
8043
8296
8029
8318
8056
8281
8112
8216
8179
8158
8221
8122
8237
8132
8199
8179
8129
8228
8059
8264
8012
8267
8023
8234
8072
8187
8146
8107
8212
8050
8242
8037
8249
8055
8204
8120
8135
8159
8091
8205
8081
8203
8108
8167
8174
8094
8229
8030
8290
8005
8307
8030
8290
8084
8223
8151
8147
8206
8107
8245
8107
8237
8139
8186
8200
8115
8254
8075
8264
8063
8234
8087
8174
8154
8109
8219
8038
8277
8017
8276
8016
8235
8065
8184
8127
8121
8187
8095
8202
8099
8180
8157
8112
8212
8047
8263
8012
8291
8028
8266
8073
8218
8155
8163
8233
8105
8286
8083
8277
8092
8230
8151
8186
8212
8126
8251
8101
8244
8113
8180
8161
8110
8224
8037
8285
8004
8299
8000
8258
8044
8200
8114
8135
8170
8080
8198
8072
8180
8100
8138
8165
8083
8224
8045
8257
8036
8230
8057
8185
8134
8124
8222
8063
8285
8044
8299
8052
8275
8095
8217
8167
8163
8225
8121
8236
8119
8201
8170
8145
8224
8074
8283
8031
8311
8025
8294
8058
8224
8128
8148
8182
8075
8221
8048
8231
8061
8188
8107
8129
8165
8084
8232
8080
8231
8090
8189
8137
8113
8203
8044
8267
8028
8322
8034
8307
8077
8250
8130
8171
8188
8123
8228
8117
8234
8133
8175
8186
8095
8230
8042
8262
8024
8255
8063
8223
8144
8165
8226
8116
8281
8065
8298
8061
8278
8098
8207
8158
8139
8202
8103
8212
8092
8188
8142
8114
8189
8057
8246
8010
8294
7996
8284
8037
8243
8122
8176
8177
8093
8204
8055
8211
8074
8202
8140
8172
8213
8099
8251
8073
8245
8090
8212
8153
8162
8226
8086
8266
8013
8281
7991
8257
8022
8200
8069
8119
8110
8056
8150
8068
8207
8146
8194
8185
8075
8202
8041
8268
8025
8290
8058
8228
8126
8208
8238
8158
8275
8070
8282
8053
8263
8097
8208
8142
8139
8202
8105
8233
8094
8181
8113
8152
8203
8099
8293
8049
8340
8036
8299
8010
8221
8069
8165
8153
8125
8223
8094
8248
8108
8219
8139
8145
8202
8089
8236
8025
8202
8002
8161
8056
8134
8175
8084
8258
8056
8330
8052
8311
8095
8316
8181
8229
8192
8128
8206
8080
8170
8103
8156
8180
8123
8273
8066
8273
7962
8204
7979
8209
8079
8203
8196
8135
8207
8026
8215
8033
8228
8071
8154
8091
8047
8083
7976
8114
8038
8219
8210
8281
8304
8179
8296
8055
8311
8021
8322
8029
8250
8058
8189
8201
8219
8288
8147
8244
8091
8192
8100
8099
8147
8070
8268
8072
8273
8034
8182
8033
8105
8101
8055
8263
8179
8434
8141
8345
8067
8225
8076
8130
8110
8085
8198
8127
8259
8150
8155
8175
8157
8291
8095
8324
8036
8273
7954
8169
7988
8128
8114
8169
8330
8209
8356
8150
8278
8085
8143
8092
8086
8166
8067
8220
8039
8125
8005
8097
8166
8200
8483
8340
8481
7998
8133
7811
8029
7877
8147
8216
8248
8297
8192
8274
8117
8186
8147
8171
8230
8123
8302
8092
8308
8030
8177
7981
8092
8049
8013
8099
7921
8166
7997
8305
8145
8427
8347
8396
8301
8168
8219
8098
8260
8179
8220
8192
8150
8272
8093
8332
8057
8330
8034
8276
8045
8165
8042
8059
8141
8073
8316
8223
8343
8155
8195
8112
8030
8060
8001
8285
8188
8402
8282
8287
8177
7990
8024
7846
8070
7844
8160
7939
8197
8008
8158
8141
8190
8272
8240
8359
8198
8249
8101
8014
8071
7981
8169
7971
8208
7981
8223
8047
8194
8138
8145
8224
8072
8225
8018
8294
8146
8433
8377
8359
8177
8003
8037
7940
8155
8189
8296
8241
8143
8170
8019
8253
7992
8306
8037
8343
8127
8295
8201
8191
8159
8039
8158
8017
8178
8097
8233
8251
8227
8303
8162
8290
7992
8119
8006
8198
8170
8158
8285
8133
8252
7937
8258
8026
8240
7989
8138
8079
8174
8277
8178
8233
8096
8120
8026
8061
8179
8079
8262
8020
8275
8024
8267
8071
8239
8162
8200
8253
8141
8276
8072
8301
8111
8303
8193
8262
8232
8162
8223
8050
8158
8057
8174
8160
8164
8231
8022
8204
7954
8291
8036
8345
8105
8290
8145
8158
8134
8095
8270
8109
8203
8081
8124
8079
8078
8196
8035
8202
7989
8211
8068
8243
8186
8193
8240
8084
8234
8053
8361
8078
8203
7880
8036
8038
8194
8321
8251
8303
8157
8169
8054
8071
8144
8041
8275
8072
8302
7988
8220
8004
8251
8147
8180
8168
8107
8235
8061
8232
8004
8134
8040
8180
8258
8202
8248
8084
8237
8071
8128
8031
8083
8214
8118
8322
8041
8295
8001
8304
8060
8314
8168
8216
8169
8095
8185
8087
8226
8111
8158
8148
8112
8177
8037
8316
8161
8407
8106
8183
8024
8087
8121
8044
8207
7999
8223
8021
8320
8143
8329
8272
8267
8196
8052
8151
8070
8182
8098
8131
8167
8068
8237
8022
8282
8009
8310
8048
8252
8063
8160
8162
8183
8302
8119
8263
8073
8215
8105
8157
8193
8209
8311
8121
8246
8062
8193
8070
8078
8116
8019
8219
8036
8305
7980
8208
7997
8313
8186
8233
8126
8015
8073
8032
8215
8150
8225
8210
8170
8248
8098
8307
8063
8293
8016
8194
8073
8237
8260
8207
8298
8071
8246
8035
8323
8141
8292
8180
8175
8145
8100
8256
8162
8265
8109
8115
8106
8084
8263
8046
8288
7977
8288
7998
8208
8039
8187
8142
8130
8188
8069
8247
8099
8226
8101
8145
8155
8109
8207
8042
8206
8015
8238
8187
8233
8190
8122
8242
8029
8276
8032
8336
8071
8319
8140
8207
8149
8105
8150
8068
8198
8122
8210
8206
8177
8231
8010
8201
7998
8270
8034
8296
8105
8177
8118
8119
8195
8025
8200
8003
8205
8027
8185
8072
8129
8248
8243
8360
8220
8252
8010
8015
8038
8024
8185
8052
8351
8067
8383
8143
8380
8083
8196
8114
8127
8141
8024
8162
8079
8270
8220
8265
8210
8065
8148
8039
8300
8136
8349
8199
8258
8109
8014
8103
7959
8218
7994
8286
8037
8283
8092
8194
8107
8092
8130
8044
8160
8070
8132
8107
8100
8200
8094
8340
8118
8358
8023
8253
8074
8262
8202
8229
8233
8065
8215
8041
8218
8054
8212
8148
8187
8192
8095
8239
8086
8206
8060
8186
8204
8178
8264
8082
8265
7959
8255
8033
8362
8150
8310
8195
8207
8232
8164
8222
8031
8085
7977
8103
8203
8092
8194
8092
8344
8044
8249
8102
8271
8176
8144
8195
8052
8233
8012
8270
8002
8231
8094
8296
8260
8259
8250
8122
8167
8033
8130
8134
8160
8214
8024
8202
7953
8238
8024
8419
8228
8303
8016
7989
8001
7972
8182
8147
8353
8150
8190
8062
8067
8107
8042
8175
8020
8191
8052
8152
8073
8057
8186
8132
8470
8253
8409
7985
8205
7983
8204
8133
8194
8222
8201
8312
8196
8314
8165
8075
8011
7944
8096
7981
8317
8201
8462
8178
8214
8023
8044
8113
8030
8243
8082
8319
8098
8304
8083
8167
8085
8072
8126
8063
8218
8129
8207
8108
8133
8198
8085
8356
8223
8574
8246
8361
7947
8060
7924
8067
8095
8080
8272
8195
8335
8132
8200
8101
8109
8156
8084
8295
8134
8294
8075
8195
8115
8119
8160
8066
8273
8038
8291
7985
8253
8025
8226
8130
8234
8239
8221
8273
8074
8113
8042
8120
8156
8083
8198
8034
8321
8079
8313
8050
8220
8053
8157
8190
8096
8161
7987
8311
8208
8408
8159
8192
8027
7979
8017
7968
8127
8089
8264
8178
8173
8227
8105
8275
8030
8293
7997
8293
8024
8264
8140
8270
8239
8160
8154
8009
8162
8111
8307
8215
8154
8134
8003
8109
7929
8161
8074
8331
8214
8261
8256
8120
8216
7996
8266
8013
8297
8052
8281
8158
8218
8195
8150
8204
8033
8084
8050
8252
8475
8480
8358
7882
8000
7814
8156
7985
8302
8154
8187
8096
8052
8195
8080
8301
8119
8306
8130
8212
8133
8131
8190
8091
8230
8073
8177
8087
8224
8301
8166
8251
8051
8343
8081
8368
8057
8213
7990
8128
8033
8023
8116
8026
8128
8029
8199
8220
8307
8351
8171
8241
7983
8177
8056
8382
8241
8224
8129
8034
8122
7922
8100
7865
8175
8052
8340
8267
8322
8226
8089
8120
8069
8220
8182
8245
8141
8018
8119
7965
8244
8062
8365
8113
8414
8212
8336
8220
8127
8150
8055
8221
8061
8275
8161
8287
8199
8156
8221
8098
8248
8087
8214
8084
8211
8226
8154
8226
7994
8232
7994
8315
8075
8357
8084
8177
8093
8095
8123
8047
8128
8006
8162
8161
8206
8225
8021
8110
7924
8195
7995
8253
8094
8217
8151
8163
8277
8162
8322
8041
8260
8047
8281
8140
8208
8124
8082
8172
8129
8283
8170
8219
8202
8196
8220
7942
8117
7908
8253
8031
8371
8155
8235
8075
8123
8173
8088
8228
8079
8233
8081
8215
8246
8232
8238
8046
8122
7937
8147
8025
8155
8147
8135
8213
8007
8281
8145
8493
8149
8295
8010
8174
8092
8113
8167
8138
8282
8162
8268
8201
8207
8219
8077
8228
8030
8305
8049
8302
8033
8116
8004
8114
8207
8151
8314
8069
8303
8065
8092
7908
8098
8344
8459
8435
8124
8105
7881
7971
7980
7997
8139
8052
8304
8049
8343
8056
8325
8075
8285
8164
8220
8213
8145
8217
8074
8254
8148
8247
8183
8220
8396
8234
8308
8032
8209
8038
8158
8057
8095
8187
8048
8218
8014
8322
8069
8271
7972
8154
8155
8224
8156
8013
8143
8119
8214
8104
8100
8112
8025
8231
8057
8355
8071
8278
8021
8222
8114
8191
8200
8099
8226
8048
8251
8067
8258
8124
8235
8223
8153
8221
8098
8229
8096
8210
8155
8199
8237
8114
8373
8098
8242
7898
8212
8002
8232
8063
8107
8081
8088
8213
8094
8228
8120
8160
8118
8166
8284
8157
8318
8058
8237
7994
8155
8078
8166
8191
8076
8217
7988
8256
8095
8491
8366
8410
8091
7987
7968
7992
8175
8077
8151
8054
8079
8174
8144
8309
8068
8275
7956
8235
8005
8242
8106
8211
8202
8189
8263
8067
8228
8056
8234
8092
8154
8143
8098
8184
8128
8347
8214
8317
8124
8109
8143
8062
8245
8028
8297
8020
8338
8075
8327
8163
8231
8154
8100
8129
8053
8174
8069
8198
8198
8150
8189
8034
8244
8028
8256
8023
8242
8116
8160
8139
8146
8388
8282
8402
7995
8107
7909
8113
8039
8106
8131
8087
8183
8090
8217
8127
8182
8174
8105
8259
8076
8324
8038
8331
8045
8271
8075
8205
8144
8140
8208
8092
8235
8076
8253
8130
8214
8182
8078
8135
8011
8226
8098
8275
8152
8202
8143
8027
8177
8038
8333
8083
8365
8070
8287
8080
8187
8102
8089
8165
8181
8358
8240
8176
8107
8107
8148
7953
8124
7969
8300
8078
8302
8059
8178
8181
8239
8309
8088
8214
7988
8248
8073
8265
8149
8200
8207
8114
8221
8088
8210
8117
8181
8163
8117
8221
8025
8246
7982
8297
8023
8297
8063
8208
8108
8126
8162
8068
8186
8039
8193
8119
8210
8228
8163
8295
8151
8291
7967
8059
7963
8239
8349
8383
8373
8057
8206
7913
8120
7858
8119
8027
8223
8164
8178
8236
8188
8308
8149
8191
8124
8115
8201
8052
8250
8045
8345
8076
8314
8057
8199
8121
8145
8184
8059
8227
8058
8287
8101
8238
8093
8117
8113
8041
8189
8143
8308
8145
8173
8085
8034
8146
8103
8428
8154
8356
7987
8242
8000
8182
8138
8243
8239
8159
8188
8043
8239
8138
8156
8133
8088
8212
8081
8291
8062
8250
8058
8166
8073
8092
8199
8159
8359
8066
8208
7902
8137
7985
8158
8106
8138
8144
8041
8141
8074
8231
8206
8205
8249
8122
8324
8048
8303
8037
8318
8070
8265
8157
8214
8228
8151
8269
8096
8268
8073
8182
8106
8247
8317
8215
8288
8106
8269
8110
8242
8179
8100
8127
7983
8208
7996
8321
8043
8316
8052
8214
8035
8057
8088
8144
8325
8165
8188
8065
8156
8235
8228
8258
7992
8142
7919
8164
7991
8199
8121
8174
8212
8116
8263
8063
8312
8095
8340
8164
8306
8203
8195
8222
8135
8226
8063
8163
8110
8137
8170
8032
8197
7988
8279
7990
8214
7937
8195
8154
8383
8349
8122
8097
7944
8106
7973
8132
8075
8142
8185
8103
8244
8087
8231
8049
8187
8130
8191
8212
8051
8226
8069
8421
8151
8382
8086
8253
8109
8223
8235
8206
8235
8064
8108
8009
8112
8135
8125
8306
8097
8280
8009
8277
8060
8227
8059
8147
8140
8061
8197
8023
8237
8030
8268
8089
8214
8133
8170
8205
8093
8176
8065
8203
8115
8136
8178
8124
8295
8078
8312
8008
8322
8065
8256
8025
8146
8118
8113
8222
8152
8326
8204
8295
8140
8116
8106
8056
8246
8089
8269
8038
8161
8045
8153
8179
8103
8242
8059
8333
8056
8299
8029
8218
8079
8203
8167
8108
8150
8045
8172
8132
8194
8158
8095
8225
8055
8286
8040
8319
8063
8297
8147
8232
8147
8115
8206
8059
8300
8124
8312
8093
8207
8108
8115
8170
8110
8230
8072
8202
8112
8189
8211
8151
8274
8072
8311
7994
8255
7960
8234
8084
8285
8239
8210
8189
8032
8122
8016
8151
8114
8214
8265
8120
8211
7994
8190
8017
8232
8090
8199
8183
8144
8245
8080
8315
8050
8307
8062
8301
8167
8244
8170
8109
8169
8088
8250
8170
8195
8102
8052
8188
8074
8298
7982
8218
7989
8260
8034
8165
8087
8055
8099
7966
8166
8084
8329
8152
8249
8134
8134
8203
8120
8264
8110
8275
8142
8211
8187
8154
8282
8123
8351
8052
8322
8006
8241
8061
8266
8204
8197
8190
8091
8219
8149
8284
8177
8109
8096
8034
8181
8016
8324
8130
8301
8055
8148
8059
8058
8181
8064
8259
8025
8258
8011
8224
8076
8190
8144
8124
8159
8059
8191
8115
8214
8162
8111
8220
8081
8316
8075
8349
8039
8289
8057
8223
8132
8161
8197
8124
8249
8086
8250
8084
8193
8127
8145
8214
8098
8242
8058
8230
8083
8182
8127
8126
8216
8061
8270
7971
8245
7989
8260
8019
8180
8088
8154
8187
8120
8221
8120
8248
8166
8166
8165
8055
8208
8033
8289
8060
8299
8073
8224
8136
8170
8214
8121
8280
8059
8294
8067
8264
8087
8188
8147
8139
8212
8084
8177
8056
8169
8131
8107
8170
7997
8182
7955
8283
7997
8240
7998
8229
8185
8261
8204
8129
8281
8163
8254
8046
8141
8105
8108
8150
8021
8197
8072
8278
8105
8231
8149
8163
8224
8141
8351
8085
8315
8013
8292
8060
8241
8122
8179
8194
8133
8224
8114
8193
8097
8108
8122
8025
8159
7946
8167
7912
8154
7931
8144
8048
8133
8127
8023
8151
7974
8195
8010
8183
8042
8175
8134
8086
8171
8117
8299
8217
8383
8323
8234
8230
8157
8396
8173
8424
8123
8448
8234
8460
8319
8413
8403
8363
8427
8280
8382
8249
8321
8247
8218
8278
8121
8279
8054
8236
8035
8189
8068
8112
8132
8042
8210
7998
8235
7979
8235
8004
8184
8055
8106
8105
8073
8179
8093
8185
8097
8126
8148
8053
8212
8027
8289
8029
8311
8031
8221
8054
8166
8164
8121
8200
8028
8215
8026
8178
8053
8148
8107
8073
8124
8015
8182
8060
8186
8098
8141
8154
8055
8212
8010
8264
7966
8248
7964
8205
8040
8155
8111
8107
8193
8110
8251
8100
8162
8090
8079
8151
8035
8227
8011
8198
7968
8207
8096
8169
8143
8092
8246
8077
8311
8068
8300
8081
8278
8154
8192
8166
8087
8166
8076
8194
8105
8149
8147
8076
8216
8047
8323
8046
8334
8037
8249
8051
8185
8136
8118
8210
8101
8263
8078
8231
8100
8188
8151
8121
8213
8087
8260
8085
8252
8148
8201
8194
8132
8284
8091
8321
8047
8361
8054
8248
8065
8260
8233
8195
8189
8077
8188
8080
8146
8101
8097
8157
8035
8242
8019
8245
7995
8240
8097
8231
8187
8157
8211
8039
8252
8041
8287
8062
8236
8122
8212
8224
8163
8237
8094
8202
8099
8179
8175
8126
8256
8095
8360
8068
8331
8023
8266
8069
8227
8180
8215
8227
8096
8220
8054
8186
8083
8173
8150
8109
8203
8070
8243
8060
8228
8087
8186
8152
8117
8232
8066
8296
8009
8293
8018
8271
8079
8224
8127
8100
8130
8070
8227
8115
8166
8111
8118
8192
8066
8278
8064
8347
8070
8268
8047
8200
8126
8132
8194
8060
8225
8037
8269
8072
8240
8100
8151
8140
8101
8204
8081
8210
8092
8159
8136
8132
8259
8106
8335
8073
8338
8008
8288
8075
8232
8110
8130
8153
8111
8246
8088
8189
8086
8153
8136
8116
8255
8109
8290
8090
8285
8097
8218
8166
8167
8228
8068
8272
8054
8333
8076
8311
8087
8219
8123
8165
8187
8089
8158
8048
8134
8088
8098
8173
8063
8247
8028
8290
8011
8263
8025
8209
8100
8157
8178
8084
8232
8051
8243
8067
8251
8144
8211
8203
8127
8236
8109
8263
8115
8231
8170
8158
8224
8072
8278
8027
8322
8043
8324
8089
8275
8141
8202
8202
8133
8209
8087
8225
8121
8193
8175
8111
8201
8049
8249
8021
8238
8029
8175
8077
8124
8163
8056
8242
8041
8279
8024
8257
8052
8200
8110
8154
8185
8097
8184
8082
8182
8123
8138
8193
8080
8267
8049
8309
8012
8288
8021
8226
8084
8167
8158
8097
8211
8069
8254
8080
8227
8102
8139
8127
8072
8184
8063
8272
8161
8266
8133
8140
8205
8118
8303
8049
8302
7996
8273
8028
8253
8120
8204
8175
8125
8192
8073
8179
8102
8158
8132
8092
8216
8081
8311
8084
8337
8105
8296
8149
8216
8207
8151
8287
8107
8317
8074
8290
8087
8233
8134
8153
8167
8079
8168
8056
8164
8086
8126
8158
8072
8229
8002
8233
7953
8234
7965
8199
8013
8124
8083
8079
8134
7983
8106
7972
8090
7989
8043
8077
8043
8198
8054
8263
8104
8285
8197
8250
8274
8233
8392
8198
8451
8167
8445
8186
8389
8208
8310
8270
8296
8356
8241
8310
8157
8210
8174
8125
8217
8054
8273
8040
8303
8043
8275
8113
8225
8167
8142
8231
8068
8248
8033
8253
8065
8219
8122
8142
8176
8082
8175
8050
8173
8071
8132
8128
8056
8183
7986
8222
7941
8232
7942
8192
7995
8151
8078
8087
8158
8065
8199
8075
8183
8108
8147
8180
8108
8259
8095
8300
8089
8275
8140
8233
8204
8154
8246
8067
8289
8022
8275
8012
8237
8064
8193
8163
8146
8201
8098
8208
8109
8195
8177
8153
8234
8082
8295
8044
8315
8034
8269
8055
8207
8129
8143
8220
8100
8264
8068
8250
8062
8194
8095
8118
8143
8077
8192
8064
8202
8079
8161
8138
8103
8209
8032
8280
8011
8303
8008
8271
8037
8204
8100
8137
8177
8099
8220
8095
8206
8110
8148
8169
8093
8223
8055
8280
8065
8269
8089
8215
8149
8147
8221
8079
8276
8049
8301
8052
8270
8086
8202
8131
8122
8181
8084
8185
8090
8179
8138
8131
8212
8067
8253
7997
8265
7981
8252
8037
8223
8125
8174
8193
8104
8237
8068
8240
8074
8197
8110
8132
8164
8094
8247
8077
8239
8095
8212
8169
8168
8241
8090
8302
8041
8329
8037
8313
8077
8255
8136
8183
8188
8119
8210
8089
8202
8111
8161
8174
8095
8229
8046
8269
8028
8257
8050
8218
8116
8153
8191
8085
8250
8043
8271
8039
8256
8075
8204
8147
8164
8202
8093
8208
8095
8195
8154
8159
8216
8101
8286
8044
8316
8020
8309
8047
8260
8122
8211
8202
8151
8236
8095
8243
8085
8204
8120
8137
8188
8092
8241
8057
8227
8054
8191
8105
8122
8166
8054
8245
8017
8288
8006
8279
8034
8228
8094
8169
8165
8112
8197
8093
8195
8108
8163
8165
8105
8237
8066
8305
8053
8311
8067
8268
8126
8200
8193
8133
8257
8077
8284
8059
8258
8084
8194
8129
8125
8183
8088
8207
8085
8200
8117
8149
8182
8074
8248
8021
8290
8001
8296
8023
8244
8070
8185
8150
8131
8212
8100
8239
8094
8207
8127
8146
8203
8102
8247
8058
8265
8068
8238
8128
8182
8189
8119
8259
8058
8312
8041
8311
8060
8248
8102
8178
8157
8112
8187
8083
8196
8109
8172
8163
8094
8218
8038
8272
8013
8289
8025
8247
8075
8197
8157
8130
8221
8075
8247
8050
8242
8075
8178
8122
8127
8194
8095
8235
8085
8220
8126
8178
8182
8093
8246
8031
8290
8007
8311
8035
8284
8089
8210
8151
8155
8215
8107
8221
8099
8197
8122
8140
8197
8098
8252
8048
8268
8040
8229
8071
8170
8150
8112
8221
8044
8273
8029
8276
8048
8260
8103
8194
8165
8132
8208
8108
8221
8122
8188
8175
8119
8245
8076
8310
8046
8324
8036
8295
8082
8228
8155
8163
8216
8101
8252
8074
8245
8083
8183
8125
8124
8185
8070
8218
8056
8211
8082
8165
8144
8085
8210
8033
8282
8007
8302
8016
8271
8052
8209
8111
8142
8178
8084
8199
8087
8191
8127
8138
8184
8095
8268
8065
8310
8071
8304
8114
8234
8153
8152
8218
8084
8290
8066
8305
8068
8250
8091
8183
8137
8115
8198
8090
8201
8094
8169
8136
8105
8204
8043
8253
8007
8295
8009
8267
8041
8217
8114
8157
8182
8099
8227
8078
8234
8089
8190
8143
8137
8214
8096
8267
8079
8257
8104
8219
8167
8153
8236
8076
8301
8042
8322
8044
8299
8079
8230
8114
8154
8169
8099
8197
8092
8172
8109
8136
8182
8078
8256
8043
8287
8030
8288
8059
8225
8120
8157
8190
8090
8248
8063
8286
8072
8268
8106
8197
8164
8126
8207
8101
8225
8104
8199
8160
8163
8234
8092
8297
8043
8327
8032
8319
8067
8261
8129
8186
8178
8110
8215
8076
8205
8080
8155
8123
8105
8182
8056
8234
8032
8226
8044
8195
8115
8139
8195
8070
8259
8030
8297
8028
8286
8058
8226
8113
8161
8171
8100
8203
8099
8204
8129
8174
8203
8111
8275
8052
8297
8025
8291
8045
8253
8129
8207
8209
8140
8254
8080
8279
8076
8249
8102
8182
8152
8135
8235
8109
8256
8105
8211
8136
8144
8187
8060
8249
8017
8293
8003
8298
8028
8235
8088
8187
8157
8109
8196
8077
8206
8085
8161
8125
8119
8218
8086
8291
8088
8312
8083
8253
8122
8168
8191
8118
8262
8073
8317
8048
8297
8071
8244
8115
8176
8169
8106
8201
8092
8195
8110
8147
8167
8074
8222
8026
8277
7991
8275
8008
8232
8052
8163
8125
8083
8182
8046
8213
8036
8185
8069
8143
8127
8111
8210
8091
8258
8097
8245
8159
8199
8223
8142
8293
8081
8348
8055
8347
8081
8312
8132
8232
8178
8161
8212
8096
8187
8081
8145
8107
8091
8186
8058
8247
8015
8241
8016
8211
8054
8158
8142
8098
8207
8042
8258
8034
8275
8051
8215
8095
8146
8151
8108
8222
8102
8215
8120
8182
8189
8135
8265
8061
8314
8038
8329
8053
8315
8124
8260
8191
8181
8232
8096
8227
8059
8191
8075
8148
8133
8093
8194
8057
8243
8060
8223
8103
8190
8180
8138
8248
8058
8301
8017
8300
8022
8269
8069
8191
8119
8122
8175
8090
8187
8095
8180
8147
8150
8213
8089
8289
8050
8313
8059
8299
8094
8238
8181
8169
8239
8099
8267
8060
8282
8070
8219
8093
8146
8147
8094
8180
8076
8198
8085
8160
8133
8093
8209
8033
8277
8005
8305
8018
8287
8061
8235
8149
8175
8196
8102
8228
8085
8223
8108
8180
8152
8102
8215
8061
8261
8058
8251
8085
8199
8150
8137
8225
8064
8291
8038
8309
8038
8268
8057
8190
8116
8130
8173
8099
8216
8098
8186
8130
8125
8193
8063
8257
8030
8300
8024
8271
8062
8225
8131
8164
8191
8082
8233
8064
8268
8070
8224
8108
8169
8176
8123
8232
8096
8238
8114
8216
8181
8161
8235
8068
8293
8032
8323
8028
8311
8061
8247
8126
8180
8177
8101
8206
8076
8191
8095
8153
8144
8100
8210
8042
8244
8025
8239
8049
8193
8113
8126
8184
8058
8241
8025
8275
8020
8266
8063
8206
8125
8152
8186
8093
8193
8088
8186
8127
8147
8204
8072
8249
8021
8295
8014
8300
8063
8263
8142
8203
8212
8143
8270
8105
8276
8093
8240
8137
8202
8212
8142
8257
8095
8242
8089
8196
8136
8151
8200
8067
8247
8007
8293
8008
8291
8038
8234
8097
8172
8168
8117
8206
8103
8226
8116
8169
8172
8110
8227
8063
8274
8038
8274
8054
8225
8116
8171
8185
8099
8248
8054
8284
8043
8267
8075
8215
8136
8170
8198
8118
8228
8100
8203
8124
8153
8181
8068
8237
8024
8291
7998
8292
8027
8248
8080
8186
8156
8104
8206
8070
8220
8062
8195
8097
8147
8171
8102
8242
8071
8256
8075
8216
8123
8157
8184
8080
8256
8038
8316
8038
8321
8063
8262
8101
8191
8164
8120
8194
8094
8205
8113
8173
8165
8110
8227
8059
8278
8033
8290
8052
8249
8103
8188
8169
8119
8236
8062
8274
8047
8263
8073
8204
8112
8140
8187
8100
8229
8107
8222
8148
8183
8210
8109
8260
8051
8313
8027
8326
8049
8295
8095
8221
8175
8152
8215
8094
8222
8076
8206
8118
8158
8177
8096
8219
8046
8235
8049
8224
8095
8171
8162
8107
8234
8041
8283
8017
8294
8038
8243
8074
8176
8130
8108
8186
8090
8202
8109
8184
8167
8115
8221
8059
8275
8019
8283
8034
8269
8083
8228
8188
8183
8261
8130
8291
8081
8276
8098
8229
8149
8179
8208
8119
8238
8087
8224
8109
8176
8173
8119
8242
8048
8299
8019
8305
8008
8267
8057
8204
8120
8133
8162
8074
8192
8069
8178
8109
8136
8179
8095
8244
8061
8271
8055
8251
8087
8204
8163
8140
8234
8080
8278
8034
8298
8045
8257
8079
8194
8137
8132
8194
8096
8198
8095
8175
8143
8106
8196
8051
8266
8013
8290
8010
8269
8047
8202
8111
8140
8184
8072
8225
8052
8230
8067
8189
8120
8147
8177
8089
8234
8085
8237
8110
8215
8181
8153
8245
8087
8316
8045
8334
8040
8314
8080
8251
8149
8182
8194
8112
8213
8099
8211
8123
8150
8174
8090
8223
8040
8273
8029
8255
8054
8207
8113
8129
8188
8065
8243
8036
8270
8026
8239
8059
8169
8115
8121
8191
8096
8216
8101
8201
8167
8158
8224
8089
8297
8048
8324
8039
8316
8062
8256
8129
8183
8194
8127
8228
8075
8223
8082
8198
8119
8139
8188
8090
8241
8070
8239
8082
8204
8134
8140
8196
8061
8255
8014
8292
8018
8289
8054
8233
8102
8168
8167
8103
8199
8090
8190
8118
8169
8191
8118
8258
8067
8295
8041
8296
8065
8248
8132
8199
8210
8128
8260
8079
8297
8066
8262
8087
8191
8131
8123
8193
8092
8218
8094
8208
8138
8152
8197
8078
8253
8019
8299
8003
8291
8019
8242
8081
8176
8157
8125
8200
8070
8216
8085
8198
8127
8146
8203
8096
8266
8074
8284
8079
8235
8120
8172
8186
8108
8260
8048
8295
8023
8288
8045
8237
8093
8175
8159
8118
8198
8088
8191
8108
8156
8158
8084
8221
8049
8275
8006
8276
8024
8238
8068
8185
8157
8126
8218
8069
8245
8046
8229
8056
8153
8097
8096
8155
8072
8205
8077
8222
8138
8198
8225
8155
8306
8077
8343
8059
8359
8075
8317
8126
8234
8176
8163
8217
8110
8247
8113
8210
8140
8146
8199
8093
8259
8047
8264
8045
8234
8084
8183
8166
8115
8217
8040
8257
8017
8279
8045
8232
8086
8169
8140
8115
8193
8091
8204
8117
8182
8172
8117
8233
8052
8284
8018
8301
8027
8277
8078
8212
8145
8142
8208
8084
8233
8060
8231
8077
8182
8126
8122
8189
8075
8216
8061
8206
8086
8168
8157
8086
8218
8025
8273
7997
8295
8018
8273
8072
8216
8137
8147
8189
8108
8218
8103
8197
8141
8140
8198
8090
8264
8055
8298
8054
8274
8105
8228
8179
8163
8232
8082
8285
8055
8286
8049
8236
8089
8177
8160
8120
8195
8084
8209
8103
8171
8147
8102
8207
8040
8270
8005
8301
8012
8280
8049
8224
8128
8157
8192
8095
8223
8064
8233
8097
8197
8152
8147
8227
8107
8275
8086
8256
8120
8211
8168
8147
8236
8076
8291
8028
8309
8020
8275
8054
8211
8110
8143
8175
8100
8204
8105
8198
8139
8170
8207
8097
8268
8048
8296
8039
8287
8069
8228
8133
8156
8195
8074
8235
8045
8264
8042
8226
8090
8188
8164
8122
8203
8097
8230
8114
8203
8161
8154
8227
8073
8286
8030
8317
8022
8307
8057
8247
8122
8176
8179
8102
8207
8068
8208
8081
8165
8125
8115
8196
8067
8244
8035
8230
8064
8205
8127
8144
8198
8062
8253
8019
8288
8013
8267
8036
8205
8096
8135
8146
8096
8199
8101
8206
8139
8174
8216
8118
8287
8066
8321
8060
8318
8078
8283
8155
8208
8215
8141
8263
8086
8284
8072
8245
8093
8174
8140
8104
8193
8077
8212
8076
8189
8128
8136
8185
8061
8247
8003
8280
7990
8281
8016
8234
8087
8180
8158
8112
8204
8095
8239
8107
8192
8146
8139
8224
8097
8283
8069
8286
8065
8235
8117
8175
8198
8115
8251
8037
8283
8032
8273
8055
8220
8095
8165
8167
8112
8204
8095
8196
8129
8161
8181
8096
8236
8033
8282
8013
8299
8037
8261
8093
8201
8174
8139
8225
8075
8232
8051
8210
8092
8178
8156
8128
8239
8093
8252
8092
8227
8139
8177
8193
8104
8265
8051
8325
8039
8323
8056
8270
8095
8197
8151
8126
8199
8091
8221
8107
8190
8141
8120
8208
8073
8264
8045
8283
8051
8247
8104
8179
8155
8097
8222
8043
8271
8034
8266
8052
8214
8097
8165
8173
8118
8225
8099
8221
8129
8181
8190
8127
8249
8053
8307
8029
8328
8049
8282
8083
8218
8159
8154
8211
8087
8230
8072
8223
8101
8159
8145
8109
8211
8066
8248
8071
8232
8118
8190
8179
8118
8235
8043
8284
8016
8303
8033
8274
8071
8208
8138
8126
8189
8095
8191
8101
8190
8166
8143
8222
8087
8286
8046
8306
8052
8274
8107
8230
8163
8148
8220
8073
8254
8036
8258
8048
8207
8097
8165
8165
8094
8188
8080
8208
8092
8169
8155
8094
8212
8030
8273
8000
8289
7998
8264
8047
8213
8122
8142
8179
8078
8210
8066
8209
8095
8176
8155
8117
8239
8082
8264
8056
8243
8083
8206
8168
8150
8244
8084
8306
8061
8334
8073
8315
8108
8222
8150
8139
8188
8112
8228
8116
8203
8162
8133
8212
8081
8271
8031
8292
8016
8261
8047
8210
8122
8141
8187
8079
8229
8039
8226
8046
8209
8106
8155
8174
8108
8228
8094
8230
8105
8207
8174
8148
8244
8087
8311
8054
8336
8028
8309
8059
8235
8096
8145
8162
8092
8206
8091
8206
8099
8156
8140
8094
8200
8050
8251
8032
8243
8055
8199
8121
8137
8195
8071
8259
8027
8289
8030
8255
8049
8182
8100
8124
8157
8094
8194
8102
8204
8172
8172
8225
8094
8287
8058
8331
8056
8327
8071
8257
8136
8189
8195
8120
8230
8062
8245
8064
8209
8107
8143
8151
8085
8208
8060
8209
8074
8193
8135
8135
8203
8058
8263
8018
8304
8015
8299
8046
8237
8096
8168
8166
8123
8221
8103
8232
8135
8207
8198
8132
8244
8079
8295
8056
8292
8082
8258
8153
8189
8211
8114
8269
8054
8288
8036
8259
8065
8210
8123
8142
8186
8096
8205
8084
8186
8119
8142
8185
8074
8250
8019
8288
7993
8286
8024
8243
8080
8179
8153
8112
8204
8061
8230
8075
8213
8125
8175
8206
8127
8256
8090
8265
8092
8226
8141
8170
8214
8116
8284
8052
8309
8017
8287
8025
8224
8070
8161
8146
8100
8187
8087
8188
8096
8164
8158
8099
8223
8045
8261
8012
8270
8034
8236
8094
8179
8172
8120
8245
8071
8284
8055
8262
8077
8228
8150
8182
8217
8127
8259
8125
8240
8157
8189
8208
8126
8281
8071
8338
8051
8335
8046
8275
8085
8195
8145
8131
8192
8077
8220
8079
8201
8111
8147
8170
8087
8217
8049
8237
8050
8215
8087
8158
8159
8096
8222
8027
8278
8017
8287
8026
8238
8073
8176
8131
8114
8196
8101
8220
8138
8200
8181
8127
8229
8068
8296
8045
8312
8058
8286
8106
8219
8171
8139
8219
8071
8242
8040
8246
8065
8197
8119
8132
8179
8095
8221
8080
8210
8104
8171
8169
8098
8230
8026
8277
7988
8288
8009
8252
8059
8205
8132
8135
8184
8086
8210
8074
8197
8112
8145
8183
8095
8245
8057
8271
8071
8277
8134
8241
8207
8173
8271
8105
8331
8075
8328
8077
8289
8112
8213
8160
8130
8199
8094
8182
8078
8142
8124
8086
8192
8037
8266
8012
8277
8002
8251
8050
8205
8130
8145
8198
8080
8234
8051
8230
8062
8195
8143
8153
8208
8118
8257
8100
8253
8133
8207
8183
8147
8252
8077
8307
8026
8309
8018
8283
8053
8215
8110
8155
8182
8102
8209
8082
8187
8111
8136
8168
8079
8222
8037
8266
8032
8252
8065
8198
8124
8137
8201
8060
8257
8035
8282
8040
8263
8091
8200
8143
8140
8210
8118
8247
8129
8210
8179
8157
8234
8087
8298
8045
8333
8045
8307
8065
8247
8130
8173
8187
8096
8229
8073
8238
8085
8197
8122
8138
8190
8077
8230
8058
8234
8082
8191
8136
8124
8200
8048
8261
8011
8295
8016
8275
8042
8207
8090
8157
8170
8095
8207
8105
8213
8138
8174
8191
8101
8255
8057
8290
8047
8291
8077
8240
8134
8166
8203
8100
8255
8052
8274
8045
8256
8088
8194
8141
8129
8192
8087
8208
8087
8190
8138
8135
8192
8066
8260
8018
8296
8008
8299
8042
8243
8106
8174
8158
8089
8202
8062
8213
8091
8207
8149
8177
8232
8113
8256
8064
8238
8070
8222
8148
8181
8231
8113
8283
8047
8302
8016
8277
8037
8213
8085
8155
8159
8101
8196
8086
8191
8103
8153
8172
8085
8236
8034
8284
8029
8290
8047
8240
8100
8175
8174
8105
8229
8054
8261
8055
8253
8087
8201
8161
8137
8216
8114
8247
8098
8213
8143
8164
8209
8094
8288
8054
8324
8040
8332
8060
8276
8105
8201
8169
8134
8208
8097
8234
8093
8189
8138
8133
8190
8066
8238
8043
8259
8050
8220
8101
8160
8175
8082
8229
8035
8279
8013
8274
8040
8226
8097
8171
8166
8123
8205
8107
8214
8123
8175
8190
8111
8255
8069
8313
8045
8318
8050
8264
8091
8204
8158
8126
8222
8061
8235
8052
8236
8084
8180
8139
8115
8189
8077
8235
8078
8218
8124
8172
8184
8083
8233
8024
8283
7994
8290
8010
8244
8070
8187
8139
8134
8191
8092
8213
8101
8208
8160
8161
8211
8094
8280
8065
8294
8076
8281
8134
8229
8196
8151
8255
8073
8284
8035
8274
8052
8232
8105
8187
8170
8128
8210
8091
8198
8097
8156
8153
8087
8212
8040
8284
8007
8294
8017
8261
8055
8198
8127
8140
8188
8074
8229
8075
8235
8105
8197
8178
8152
8250
8112
8278
8091
8237
8125
8200
8191
8142
8257
8069
8312
8033
8317
8028
8275
8069
8204
8131
8146
8188
8104
8213
8098
8191
8130
8133
8199
8067
8246
8025
8261
8016
8240
8054
8191
8134
8128
8200
8056
8241
8025
8249
8035
8221
8085
8173
8155
8127
8234
8111
8249
8138
8209
8192
8151
8247
8079
8317
8049
8337
8040
8312
8070
8229
8129
8155
8176
8083
8213
8070
8207
8082
8164
8136
8115
8206
8062
8240
8046
8233
8075
8184
8138
8126
8209
8046
8258
8013
8282
8013
8267
8055
8206
8118
8158
8192
8113
8232
8123
8216
8169
8168
8218
8103
8287
8055
8315
8055
8311
8076
8241
8138
8162
8193
8082
8236
8050
8262
8051
8227
8104
8173
8148
8104
8187
8072
8205
8089
8193
8155
8132
8208
8057
8265
8018
8301
8000
8284
8035
8233
8096
8164
8167
8105
8206
8092
8232
8105
8193
8162
8131
8223
8080
8269
8063
8277
8089
8239
8156
8173
8221
8104
8274
8044
8289
8017
8264
8052
8209
8118
8156
8173
8090
8182
8080
8176
8110
8136
8188
8080
8252
8031
8294
8015
8287
8041
8241
8108
8169
8173
8093
8222
8066
8266
8080
8267
8138
8210
8207
8157
8257
8107
8262
8103
8221
8157
8175
8232
8117
8296
8041
8313
8020
8297
8029
8231
8075
8169
8156
8108
8202
8083
8194
8093
8155
8140
8104
8197
8059
8257
8036
8271
8043
8217
8104
8169
8171
8082
8229
8037
8274
8025
8269
8066
8229
8138
8191
8200
8130
8236
8111
8218
8149
8178
8205
8109
8268
8062
8318
8029
8303
8022
8240
8067
8177
8151
8114
8200
8068
8227
8067
8212
8099
8157
8169
8109
8212
8067
8232
8066
8210
8113
8162
8181
8083
8241
8032
8298
8009
8294
8038
8260
8091
8210
8167
8145
8211
8111
8244
8132
8199
8178
8153
8243
8093
8300
8063
8313
8074
8272
8120
8212
8176
8131
8227
8057
8245
8024
8250
8051
8208
8101
8141
8155
8089
8181
8073
8190
8097
8149
8157
8086
8232
8031
8290
8002
8297
8014
8258
8054
8195
8133
8124
8190
8091
8229
8091
8243
8133
8192
8188
8128
8250
8088
8275
8081
8248
8121
8192
8179
8123
8245
8052
8297
8028
8302
8034
8250
8066
8192
8143
8120
8186
8089
8185
8094
8174
8154
8117
8212
8058
8262
8018
8281
8025
8257
8062
8201
8140
8126
8197
8049
8235
8038
8249
8061
8219
8126
8183
8198
8129
8245
8106
8233
8125
8200
8186
8136
8268
8077
8320
8041
8329
8031
8283
8053
8204
8120
8148
8181
8093
8210
8079
8200
8107
8144
8169
8092
8211
8045
8243
8039
8237
8069
8197
8146
8128
8211
8051
8253
8009
8278
8022
8259
8070
8195
8136
8156
8208
8122
8244
8127
8204
8158
8143
8228
8084
8298
8057
8323
8047
8307
8073
8234
8143
8162
8190
8081
8230
8058
8247
8065
8198
8109
8135
8165
8086
8220
8064
8215
8080
8181
8147
8133
8222
8063
8274
8016
8315
8014
8298
8050
8220
8121
8169
8179
8111
8226
8117
8241
8142
8193
8207
8132
8267
8084
8289
8059
8287
8083
8240
8156
8177
8228
8107
8266
8041
8282
8036
8254
8073
8185
8124
8122
8179
8093
8199
8088
8186
8136
8119
8192
8055
8251
8009
8294
8005
8281
8033
8223
8105
8155
8168
8100
8229
8085
8264
8097
8238
8133
8175
8198
8119
8257
8089
8267
8106
8232
8161
8172
8231
8098
8280
8038
8309
8021
8294
8043
8235
8088
8171
8169
8116
8202
8078
8174
8099
8149
8162
8093
8226
8044
8274
8025
8280
8050
8240
8117
8176
8182
8099
8228
8046
8263
8029
8240
8063
8200
8126
8147
8186
8099
8233
8099
8205
8140
8162
8205
8103
8271
8053
8324
8042
8331
8056
8278
8119
8204
8179
8134
8225
8090
8251
8093
8222
8131
8155
8194
8100
8237
8064
8256
8062
8207
8108
8155
8176
8074
8243
8032
8287
8010
8275
8028
8231
8086
8175
8157
8124
8204
8104
8217
8124
8183
8175
8114
8241
8067
8295
8047
8309
8057
8261
8102
8195
8158
8115
8211
8062
8248
8043
8243
8068
8199
8126
8137
8171
8087
8207
8083
8206
8107
8155
8169
8086
8235
8030
8295
8010
8296
8010
8242
8048
8182
8131
8129
8185
8097
8223
8105
8231
8137
8178
8210
8118
8271
8087
8297
8086
8268
8128
8215
8193
8149
8267
8078
8315
8061
8319
8064
8278
8103
8197
8154
8118
8182
8086
8193
8101
8166
8154
8103
8214
8046
8273
8007
8291
8009
8251
8053
8194
8134
8126
8195
8069
8239
8047
8248
8083
8214
8150
8156
8205
8109
8243
8084
8232
8117
8197
8194
8148
8259
8066
8299
8023
8306
8024
8277
8060
8212
8129
8152
8187
8085
8202
8083
8196
8120
8144
8186
8086
8245
8042
8256
8039
8249
8069
8203
8144
8135
8207
8056
8248
8027
8268
8036
8234
8091
8200
8169
8145
8211
8120
8243
8132
8214
8183
8156
8240
8078
8296
8036
8317
8031
8299
8062
8237
8136
8170
8195
8100
8226
8056
8221
8064
8184
8111
8120
8177
8079
8229
8055
8230
8079
8184
8143
8121
8209
8046
8258
8004
8284
8002
8268
8032
8212
8104
8160
8189
8123
8226
8121
8237
8148
8175
8200
8100
8259
8058
8302
8061
8302
8081
8247
8141
8165
8197
8084
8241
8040
8265
8046
8252
8082
8192
8138
8122
8192
8091
8211
8093
8205
8149
8140
8202
8062
8258
8015
8298
8003
8286
8031
8226
8088
8162
8165
8090
8208
8085
8242
8113
8230
8182
8183
8229
8117
8281
8091
8291
8108
8243
8151
8172
8215
8103
8266
8035
8291
8017
8279
8040
8227
8100
8170
8167
8110
8196
8093
8188
8111
8160
8174
8099
8243
8041
8280
8013
8280
8024
8228
8091
8163
8171
8112
8230
8065
8265
8066
8246
8093
8214
8170
8158
8220
8118
8252
8110
8220
8155
8178
8219
8114
8276
8049
8309
8008
8294
8008
8235
8057
8167
8127
8107
8180
8066
8199
8076
8164
8121
8125
8183
8069
8251
8041
8249
8049
8210
8089
8164
8177
8111
8238
8036
8273
8017
8280
8059
8242
8114
8194
8180
8124
8215
8112
8224
8133
8196
8205
8143
8280
8076
8315
8040
8315
8039
8260
8075
8196
8152
8134
8210
8071
8236
8056
8241
8087
8186
8134
8120
8191
8077
8233
8068
8216
8097
8156
8167
8089
8238
8031
8294
8001
8287
8012
8249
8071
8209
8145
8150
8209
8121
8247
8127
8215
8171
8176
8230
8110
8282
8072
8306
8071
8261
8106
8208
8164
8116
8215
8044
8270
8049
8298
8063
8236
8097
8181
8166
8124
8211
8093
8205
8095
8164
8168
8108
8219
8047
8282
8005
8292
8006
8256
8041
8189
8108
8132
8186
8077
8232
8071
8250
8121
8222
8203
8178
8263
8116
8286
8113
8284
8142
8218
8175
8133
8225
8036
8252
7990
8276
8005
8249
8041
8187
8098
8136
8164
8088
8206
8107
8209
8167
8175
8221
8084
8235
8015
8259
8014
8244
8045
8194
8110
8122
8182
8053
8239
8043
8275
8075
8265
8116
8206
8183
8148
8251
8128
8262
8159
8228
8194
8170
8261
8078
8290
8007
8288
7980
8239
7996
8179
8048
8103
8134
8068
8212
8072
8206
8068
8137
8102
8082
8158
8044
8210
8031
8221
8054
8185
8144
8147
8227
8086
8276
8032
8313
8060
8346
8148
8354
8281
8330
8365
8296
8383
8289
8360
8274
8248
8248
8133
8317
8096
8334
8056
8314
8072
8238
8114
8150
8161
8057
8186
8000
8203
8006
8165
8040
8122
8097
8049
8123
8027
8185
8070
8174
8137
8155
8247
8106
8304
8026
8271
7945
8202
7937
8090
7897
7921
7895
7837
7932
7827
7962
7867
7970
7968
7963
8079
7986
8199
8037
8300
8151
8347
8265
8344
8381
8270
8455
8272
8552
8362
8648
8479
8608
8423
8397
8335
8236
8345
8273
8381
8264
8225
8219
8092
8227
8006
8263
7993
8290
8044
8254
8088
8197
8186
8126
8212
8036
8204
8047
8238
8126
8205
8189
8178
8286
8169
8322
8148
8249
8141
8148
8168
8050
8229
7999
8274
7985
8269
8002
8212
8024
8105
8061
8016
8072
7960
8075
7997
8096
8073
8056
8152
8013
8174
7975
8204
7986
8177
8037
8117
8099
8017
8145
7973
8224
8003
8257
8051
8203
8047
8062
8069
8052
8185
8160
8305
8180
8198
8186
8103
8281
8107
8386
8074
8296
7980
8209
8028
8142
8049
8058
8188
8094
8225
8031
8166
8066
8135
8114
8066
8173
8076
8288
8118
8272
8157
8232
8219
8156
8284
8080
8320
8021
8319
8047
8233
8027
8161
8150
8181
8238
8156
8282
8159
8233
8205
8200
8289
8132
8269
8015
8272
8023
8232
8071
8260
8237
8215
8266
8073
8237
8045
8238
7993
8118
8009
8054
8073
8031
8141
8044
8194
8156
8238
8230
8167
8325
8154
8340
8026
8300
7987
8207
7977
8166
8180
8323
8444
8359
8453
8238
8261
8076
8092
8038
7988
8129
8027
8243
8066
8257
8118
8215
8173
8137
8220
8026
8226
7985
8287
8046
8304
8108
8216
8125
8137
8166
8084
8181
8053
8119
8098
8131
8278
8187
8295
7997
8236
7967
8253
8087
8261
8175
8196
8235
8080
8178
7953
8130
8003
8211
8136
8198
8174
8071
8124
7988
8128
8099
8285
8304
8274
8328
8099
8220
7925
8226
7960
8269
8048
8251
8166
8206
8204
8173
8311
8222
8361
8269
8315
8277
8188
8314
8208
8378
8112
8298
8087
8223
8127
8095
8131
8008
8187
7943
8163
7923
8148
7969
8101
8038
8085
8136
8082
8227
8119
8208
8179
8197
8218
8038
8176
7912
8128
7833
8099
7923
8163
8075
8179
8224
8144
8235
8081
8301
8158
8337
8255
8333
8412
8337
8417
8284
8394
8226
8349
8236
8244
8364
8243
8419
8173
8445
8115
8338
8074
8253
8100
8167
8167
8111
8204
8107
8243
8133
8183
8184
8112
8221
8058
8264
8039
8271
8043
8195
8060
8094
8105
7991
8126
7879
8079
7931
8274
8163
8387
8257
8166
8032
7914
8146
8178
8358
8260
8151
8069
7892
8033
7851
8145
7907
8218
7985
8206
8039
8127
8114
8102
8252
8119
8242
8046
8188
8131
8201
8197
8090
8191
8059
8239
8074
8192
8067
8058
8093
8056
8263
8040
8286
7963
8199
7971
8212
8071
8154
8144
8114
8208
8096
8210
8125
8145
8112
8044
8172
8015
8246
8016
8271
8059
8283
8164
8257
8215
8130
8219
8020
8226
8026
8255
8070
8216
8156
8206
8226
8083
8168
8078
8215
8157
8231
8319
8195
8331
8095
8345
8036
8301
7986
8215
8064
8240
8233
8196
8238
8103
8236
8068
8129
8033
8095
8238
8265
8404
8208
8331
8030
8109
7965
8085
8127
8067
8228
8031
8280
8009
8287
8062
8316
8153
8231
8206
8199
8275
8141
8231
8116
8181
8174
8145
8245
8075
8297
8023
8286
8039
8285
8090
8159
8130
8154
8256
8106
8244
8026
8281
8172
8322
8174
8091
8078
8039
8215
8099
8207
8103
8181
8206
8103
8195
7977
8215
7947
8296
8050
8318
8084
8156
8045
8070
8193
8163
8304
8163
8291
8165
8149
8161
8073
8252
8070
8289
8064
8258
8112
8210
8176
8137
8237
8081
8309
8047
8274
8001
8217
8062
8165
8161
8166
8232
8119
8210
8090
8161
8147
8107
8216
8061
8303
8058
8337
8029
8303
8112
8224
8111
8115
8169
8074
8272
8076
8240
8130
8334
8250
8224
8223
8077
8153
8019
8184
8085
8262
8285
8203
8310
8111
8278
7952
8229
7991
8271
