EMG
8073
8042
8112
8005
8130
7976
8139
7983
8103
7991
8063
8033
8036
8054
8014
8055
8016
8044
8041
8009
8101
8008
8145
7974
8141
7981
8142
8000
8093
8029
8042
8071
8021
8094
8005
8099
8011
8076
8034
8042
8062
8006
8081
8005
8087
8026
8056
8050
8018
8089
7979
8124
7959
8137
7960
8126
7989
8093
8017
8059
8057
8030
8077
8026
8071
8040
8048
8054
7982
8075
7968
8103
7971
8096
7992
8076
8036
8034
8077
7994
8117
8004
8160
8006
8094
7973
8049
8016
8037
8076
8055
8113
8079
8100
8079
8057
8117
8026
8153
7981
8149
7958
8125
7967
8090
8009
8050
8041
8010
8079
8005
8088
8021
8076
8043
8053
8083
8029
8108
8012
8107
8015
8079
8049
8040
8095
7998
8136
7977
8139
7971
8137
7986
8107
8023
8069
8062
8039
8080
8034
8073
8046
8045
8069
7996
8085
7977
8124
7972
8129
8000
8108
8038
8072
8077
8022
8112
8001
8127
7989
8106
8004
8078
8039
8052
8084
8038
8091
8035
8068
8043
8035
8076
7981
8114
7971
8148
7958
8138
7975
8117
8020
8085
8053
8036
8074
8016
8091
8035
8081
8054
8054
8089
8021
8111
8003
8113
8012
8094
8030
8044
8075
8000
8117
7978
8137
7977
8137
7985
8102
8022
8080
8050
8040
8074
8031
8066
8043
8058
8082
8028
8111
7978
8137
7977
8135
7987
8118
8016
8081
8067
8038
8100
8009
8115
7998
8105
8022
8082
8055
8059
8082
8030
8097
8033
8087
8049
8057
8093
8012
8128
7991
8170
7987
8149
7976
8128
8005
8084
8041
8046
8070
8011
8066
8017
8061
8051
8034
8069
8002
8119
8017
8138
8001
8098
8033
8086
8086
8049
8146
8012
8148
7991
8142
7993
8123
8027
8085
8061
8054
8084
8034
8078
8045
8052
8072
8037
8129
8006
8152
7987
8149
7978
8131
8011
8095
8056
8049
8063
7982
8069
7995
8107
8036
8095
8065
8054
8083
8028
8104
8023
8092
8034
8066
8071
8018
8112
7997
8151
7980
8161
7986
8139
8007
8098
8042
8065
8079
8049
8095
8043
8082
8063
8060
8091
8007
8116
7989
8126
7990
8117
8018
8087
8059
8034
8086
7988
8099
7959
8096
7961
8087
8010
8084
8085
8097
8133
8088
8139
8100
8109
8108
8058
8120
7993
8132
7967
8154
7968
8133
7997
8106
8044
8072
8088
8035
8104
8022
8101
8034
8074
8063
8052
8099
8038
8121
8015
8108
8017
8071
8058
8029
8108
8007
8141
7979
8152
7980
8136
8004
8102
8038
8073
8076
8048
8082
8035
8074
8056
8056
8096
8017
8126
7985
8129
7981
8126
8000
8100
8039
8058
8087
8014
8123
8008
8129
8004
8111
8021
8075
8067
8063
8098
8041
8099
8044
8083
8072
8048
8119
8014
8147
7983
8162
7981
8163
8010
8133
8042
8085
8077
8052
8107
8042
8113
8055
8095
8066
8049
8092
8015
8118
7999
8110
8022
8095
8065
8069
8106
8021
8131
7984
8156
7990
8140
8005
8117
8047
8077
8071
8055
8100
8054
8090
8069
8062
8098
8025
8131
7996
8146
7979
8141
7995
8111
8036
8080
8088
8043
8108
8016
8131
8025
8138
8072
8112
8069
8058
8112
8044
8093
8025
8083
8076
8064
8122
8034
8167
7994
8164
7981
8166
7997
8135
8029
8093
8071
8052
8091
8024
8077
8031
8068
8067
8047
8109
8020
8123
7998
8126
8013
8107
8059
8109
8144
8079
8170
8013
8144
7988
8138
8004
8111
8037
8081
8071
8052
8091
8047
8086
8065
8064
8106
8030
8127
7986
8158
7983
8158
8001
8147
8035
8099
8073
8061
8108
8022
8119
8026
8107
8026
8057
8047
8032
8082
8012
8096
8024
8097
8051
8063
8098
8043
8180
8048
8222
8024
8200
8009
8142
8028
8109
8069
8070
8087
8042
8077
8032
8064
8061
8032
8091
8005
8133
8002
8143
8009
8132
8058
8141
8127
8073
8120
8007
8134
7993
8139
8006
8110
8044
8083
8075
8054
8094
8041
8095
8055
8066
8095
8038
8131
8000
8157
7982
8165
7989
8136
8013
8110
8075
8078
8101
8036
8115
8027
8107
8046
8078
8074
8059
8124
8042
8138
8038
8112
8047
8077
8093
8057
8155
8018
8178
7998
8168
8005
8152
8029
8115
8066
8079
8092
8053
8095
8040
8074
8077
8049
8113
8022
8146
8000
8155
8000
8150
8030
8109
8072
8062
8110
8029
8136
8012
8141
8030
8125
8057
8087
8077
8063
8105
8051
8114
8066
8094
8101
8047
8133
8010
8168
7999
8185
8003
8179
8027
8126
8046
8076
8080
8039
8102
8041
8120
8071
8102
8100
8069
8131
8035
8131
8006
8114
8026
8086
8078
8062
8120
8016
8159
7986
8153
7983
8134
8024
8125
8077
8095
8097
8060
8109
8061
8090
8080
8043
8102
8009
8130
7965
8107
7945
8128
8007
8117
8067
8105
8145
8054
8127
8030
8141
8034
8126
8069
8103
8096
8064
8115
8048
8118
8060
8104
8094
8062
8129
8016
8154
7994
8178
7993
8177
8021
8140
8050
8093
8087
8064
8120
8065
8110
8080
8094
8091
8053
8126
8029
8148
8023
8150
8043
8116
8067
8069
8117
8041
8160
8016
8170
8015
8146
8029
8120
8062
8087
8093
8067
8112
8065
8104
8090
8074
8121
8030
8149
8000
8164
7993
8175
8008
8130
8046
8091
8091
8060
8127
8038
8137
8046
8119
8053
8080
8082
8043
8110
8040
8123
8045
8107
8079
8067
8118
8028
8143
7979
8145
7960
8145
7983
8118
8027
8087
8077
8071
8110
8055
8110
8081
8113
8132
8094
8153
8026
8147
8003
8148
8019
8122
8054
8092
8111
8051
8144
8024
8157
8013
8155
8034
8130
8075
8095
8102
8076
8125
8073
8119
8087
8079
8111
8039
8172
8016
8182
8001
8190
8027
8173
8053
8117
8081
8067
8105
8043
8122
8048
8116
8071
8094
8100
8051
8117
8036
8132
8038
8115
8059
8074
8102
8040
8163
8010
8187
8003
8168
8000
8128
8026
8098
8070
8068
8094
8054
8100
8056
8071
8083
8046
8145
8051
8194
8026
8164
8010
8148
8056
8132
8104
8070
8123
8033
8156
8034
8169
8047
8129
8061
8076
8067
8011
8052
8015
8091
8070
8080
8104
8048
8160
8010
8168
7986
8173
8001
8166
8032
8123
8071
8086
8111
8059
8121
8055
8109
8068
8087
8104
8053
8131
8038
8142
8029
8125
8050
8095
8093
8056
8148
8019
8182
8010
8179
8016
8156
8039
8114
8077
8083
8095
8057
8107
8057
8083
8099
8060
8141
8022
8160
8001
8169
8010
8174
8047
8139
8079
8084
8121
8051
8149
8032
8134
8033
8115
8067
8082
8101
8056
8112
8044
8118
8058
8089
8111
8082
8164
8020
8160
8008
8216
8021
8201
8051
8162
8083
8106
8110
8075
8119
8057
8082
8044
8051
8071
8020
8121
8027
8147
8027
8169
8067
8139
8093
8086
8162
8075
8198
8035
8172
8011
8146
8047
8124
8085
8089
8105
8066
8113
8073
8098
8091
8058
8131
8032
8161
8001
8172
7997
8166
8017
8143
8063
8092
8103
8061
8131
8043
8140
8050
8119
8080
8085
8101
8058
8125
8046
8123
8057
8110
8091
8072
8147
8035
8177
8007
8182
7999
8169
8021
8143
8060
8116
8101
8076
8118
8070
8108
8083
8096
8119
8063
8151
8027
8161
8019
8175
8048
8141
8071
8095
8132
8053
8157
8029
8185
8033
8154
8047
8112
8067
8080
8099
8066
8115
8066
8099
8085
8079
8135
8053
8183
8020
8207
8018
8193
8023
8162
8051
8110
8105
8077
8102
8024
8114
8059
8130
8096
8109
8133
8079
8156
8059
8157
8055
8118
8076
8091
8136
8062
8184
8031
8208
8021
8196
8028
8136
8041
8099
8076
8076
8108
8068
8109
8081
8091
8094
8043
8148
8044
8185
8018
8165
8012
8152
8058
8113
8106
8072
8144
8041
8159
8034
8153
8053
8119
8068
8082
8105
8061
8126
8063
8107
8079
8084
8120
8050
8166
8009
8178
8000
8192
8014
8171
8045
8123
8079
8078
8108
8061
8120
8068
8125
8102
8101
8123
8054
8136
8033
8150
8039
8129
8067
8100
8103
8061
8160
8025
8177
8010
8180
8026
8148
8056
8119
8100
8092
8120
8073
8123
8088
8105
8115
8064
8141
8019
8173
8016
8188
8005
8167
8043
8117
8081
8086
8128
8052
8144
8041
8144
8059
8126
8092
8085
8103
8054
8120
8036
8101
8045
8076
8110
8054
8141
7989
8141
7990
8199
8031
8222
8095
8216
8178
8184
8164
8091
8124
8061
8099
8069
8068
8114
8049
8147
8030
8162
8030
8161
8058
8116
8094
8072
8149
8039
8177
8023
8170
8026
8152
8050
8123
8088
8090
8110
8080
8125
8080
8105
8107
8063
8141
8027
8172
8015
8204
8014
8179
8044
8144
8066
8090
8119
8069
8143
8048
8137
8065
8114
8083
8082
8121
8072
8155
8057
8146
8071
8110
8095
8077
8159
8035
8192
8009
8181
8003
8185
8036
8136
8071
8100
8103
8075
8118
8071
8116
8103
8102
8139
8073
8167
8037
8180
8031
8179
8056
8150
8069
8052
8081
8026
8149
8040
8173
8046
8160
8067
8122
8088
8093
8120
8074
8131
8087
8122
8115
8085
8140
8026
8158
8000
8187
7999
8178
8012
8153
8062
8106
8096
8070
8129
8055
8133
8066
8118
8107
8120
8159
8070
8144
8037
8142
8059
8147
8105
8096
8144
8043
8176
8020
8196
8014
8177
8035
8148
8066
8116
8110
8085
8111
8066
8105
8089
8081
8122
8057
8154
8034
8180
8023
8189
8047
8174
8093
8137
8142
8088
8167
8042
8147
8023
8125
8049
8122
8103
8108
8137
8072
8124
8059
8114
8093
8093
8152
8058
8184
8023
8204
8006
8184
8012
8164
8058
8133
8103
8089
8122
8058
8127
8071
8117
8105
8088
8130
8058
8158
8045
8170
8064
8158
8093
8103
8129
8055
8167
8023
8188
8020
8183
8044
8153
8073
8118
8110
8092
8118
8071
8115
8090
8094
8119
8057
8158
8031
8180
8012
8187
8026
8182
8062
8145
8111
8089
8150
8058
8151
8049
8145
8081
8135
8106
8095
8123
8055
8131
8057
8134
8095
8108
8127
8059
8175
8022
8190
8000
8187
8018
8173
8038
8121
8084
8085
8112
8066
8118
8072
8118
8091
8070
8129
8075
8194
8057
8188
8042
8157
8055
8108
8097
8063
8148
8033
8172
8009
8150
8016
8129
8042
8095
8073
8065
8100
8062
8121
8092
8109
8144
8112
8215
8078
8244
8051
8213
8012
8167
8045
8157
8104
8113
8150
8091
8180
8075
8162
8101
8150
8133
8107
8140
8068
8146
8051
8125
8036
8057
8066
8046
8159
8042
8208
8033
8221
8027
8181
8044
8139
8087
8114
8131
8096
8148
8090
8126
8114
8106
8148
8063
8167
8028
8169
8020
8166
8044
8135
8093
8091
8141
8046
8165
8029
8168
8044
8148
8067
8125
8105
8094
8118
8076
8128
8083
8101
8108
8072
8154
8032
8191
8015
8204
8021
8190
8042
8168
8088
8116
8120
8081
8140
8053
8114
8060
8103
8107
8093
8160
8086
8179
8066
8169
8073
8162
8143
8101
8143
8025
8167
8006
8181
8024
8195
8055
8152
8084
8108
8114
8085
8121
8084
8126
8102
8086
8137
8058
8176
8033
8201
8027
8186
8044
8165
8093
8112
8136
8074
8177
8055
8166
8057
8157
8079
8112
8094
8084
8129
8066
8137
8080
8132
8114
8093
8167
8049
8196
8019
8209
8014
8192
8027
8172
8072
8117
8095
8083
8135
8070
8133
8080
8122
8114
8083
8142
8056
8161
8046
8175
8058
8146
8086
8095
8141
8059
8177
8029
8200
8031
8178
8056
8157
8086
8129
8110
8078
8121
8082
8115
8100
8099
8142
8064
8184
8043
8219
8021
8188
8021
8166
8060
8102
8083
8064
8133
8050
8154
8063
8147
8086
8135
8152
8138
8186
8119
8194
8087
8129
8096
8103
8162
8073
8197
8034
8207
8025
8216
8036
8184
8065
8131
8098
8093
8127
8081
8138
8084
8108
8112
8084
8150
8057
8173
8043
8186
8046
8167
8084
8133
8133
8075
8158
8047
8205
8054
8184
8059
8151
8068
8096
8103
8081
8119
8066
8117
8099
8083
8098
8022
8137
8019
8204
8023
8209
8028
8185
8060
8145
8098
8091
8128
8071
8159
8073
8145
8085
8119
8121
8082
8144
8059
8150
8063
8155
8099
8118
8143
8079
8184
8042
8203
8018
8193
8029
8189
8064
8146
8106
8109
8124
8082
8128
8084
8109
8108
8077
8136
8047
8177
8037
8198
8039
8176
8057
8130
8099
8083
8158
8055
8185
8049
8181
8070
8174
8096
8129
8120
8096
8144
8089
8140
8103
8113
8125
8067
8163
8023
8197
8021
8210
8030
8196
8053
8160
8096
8127
8153
8077
8141
8075
8143
8094
8126
8128
8094
8163
8060
8155
8045
8160
8074
8135
8117
8089
8170
8040
8188
8019
8204
8029
8193
8068
8146
8097
8113
8128
8099
8147
8108
8129
8119
8090
8151
8052
8170
8029
8174
8010
8182
8057
8153
8087
8095
8133
8058
8166
8048
8166
8059
8147
8080
8106
8117
8089
8140
8068
8135
8081
8118
8111
8078
8169
8045
8200
8018
8224
8016
8198
8055
8174
8087
8128
8117
8098
8149
8093
8156
8113
8112
8105
8054
8142
8057
8174
8041
8167
8062
8146
8105
8105
8167
8067
8186
8034
8191
8034
8201
8084
8165
8097
8106
8110
8094
8146
8099
8135
8128
8095
8140
8037
8156
8004
8178
8003
8183
8040
8176
8102
8151
8159
8120
8217
8132
8244
8107
8159
8088
8110
8119
8079
8146
8072
8157
8083
8150
8120
8098
8166
8060
8198
8039
8239
8037
8213
8042
8183
8081
8134
8109
8094
8139
8084
8110
8058
8082
8105
8079
8166
8057
8183
8046
8187
8050
8159
8087
8123
8142
8074
8177
8044
8189
8042
8173
8053
8141
8088
8113
8118
8092
8134
8088
8122
8101
8087
8133
8058
8186
8039
8225
8026
8214
8046
8185
8068
8124
8100
8091
8160
8076
8157
8080
8152
8103
8124
8138
8089
8161
8075
8176
8075
8137
8088
8104
8144
8072
8187
8031
8213
8028
8205
8041
8186
8074
8143
8117
8114
8139
8097
8143
8100
8113
8119
8071
8149
8046
8182
8035
8196
8034
8169
8072
8140
8137
8103
8181
8078
8189
8038
8148
8040
8125
8076
8112
8122
8087
8135
8084
8137
8100
8102
8132
8058
8169
8023
8196
8005
8202
8020
8182
8050
8143
8090
8105
8159
8092
8154
8080
8147
8124
8140
8162
8104
8179
8079
8195
8071
8169
8083
8112
8109
8072
8171
8036
8193
8028
8205
8042
8175
8059
8134
8102
8110
8129
8094
8141
8107
8120
8118
8079
8164
8054
8184
8024
8193
8016
8168
8042
8139
8088
8087
8140
8064
8178
8081
8215
8098
8171
8122
8159
8165
8109
8158
8084
8149
8107
8133
8147
8090
8167
8035
8201
8040
8254
8055
8190
8019
8123
8082
8129
8149
8117
8161
8092
8142
8104
8128
8148
8087
8165
8044
8168
8045
8183
8086
8161
8133
8113
8181
8073
8198
8036
8174
8026
8176
8088
8182
8127
8134
8151
8109
8146
8093
8126
8126
8092
8150
8040
8186
8026
8207
8027
8198
8044
8160
8094
8123
8140
8084
8165
8069
8155
8073
8139
8099
8105
8120
8075
8142
8064
8150
8082
8126
8113
8084
8162
8051
8206
8030
8229
8044
8222
8057
8177
8083
8121
8111
8090
8134
8082
8132
8108
8115
8138
8081
8170
8059
8198
8044
8189
8065
8163
8100
8111
8151
8068
8179
8050
8194
8042
8172
8071
8158
8117
8127
8151
8098
8147
8092
8142
8143
8110
8177
8072
8214
8047
8225
8013
8201
8049
8186
8078
8113
8111
8088
8142
8066
8149
8072
8133
8094
8102
8129
8080
8163
8067
8175
8075
8149
8105
8105
8156
8069
8200
8042
8226
8047
8206
8036
8169
8071
8127
8113
8102
8133
8097
8143
8116
8124
8142
8073
8168
8042
8183
8026
8186
8036
8172
8091
8163
8171
8106
8172
8057
8202
8081
8219
8103
8174
8126
8138
8134
8071
8131
8080
8136
8113
8108
8159
8072
8196
8041
8222
8027
8213
8036
8192
8071
8152
8111
8106
8140
8085
8152
8085
8139
8107
8101
8130
8083
8174
8062
8190
8065
8174
8105
8136
8135
8073
8181
8040
8201
8024
8187
8040
8180
8085
8136
8104
8092
8124
8086
8132
8117
8129
8149
8105
8197
8053
8210
8020
8184
8012
8163
8052
8098
8055
8051
8127
8071
8206
8092
8219
8126
8216
8170
8152
8156
8083
8139
8068
8158
8121
8151
8164
8083
8181
8022
8205
8024
8233
8042
8195
8064
8152
8095
8112
8132
8086
8144
8086
8135
8113
8110
8141
8073
8170
8054
8188
8054
8175
8079
8128
8113
8094
8176
8054
8195
8041
8206
8059
8172
8081
8141
8106
8106
8126
8082
8132
8094
8112
8139
8098
8194
8066
8209
8038
8235
8044
8196
8045
8153
8087
8107
8148
8086
8182
8087
8184
8100
8159
8116
8100
8125
8063
8144
8071
8147
8086
8126
8136
8085
8184
8054
8225
8044
8247
8051
8221
8075
8167
8093
8113
8120
8084
8132
8085
8128
8118
8112
8148
8073
8177
8043
8195
8048
8192
8066
8154
8114
8105
8158
8059
8174
8048
8206
8060
8171
8089
8145
8114
8112
8133
8090
8149
8101
8128
8131
8098
8188
8062
8205
8026
8205
8022
8217
8089
8217
8108
8124
8150
8118
8198
8106
8182
8104
8157
8128
8113
8148
8080
8167
8078
8184
8087
8161
8135
8114
8179
8069
8206
8042
8235
8040
8203
8052
8175
8099
8136
8130
8105
8151
8096
8133
8117
8113
8161
8092
8218
8079
8235
8051
8196
8044
8143
8070
8106
8145
8088
8182
8057
8182
8040
8144
8070
8140
8117
8105
8143
8092
8145
8095
8136
8124
8105
8185
8080
8222
8049
8239
8035
8214
8034
8166
8068
8127
8121
8102
8149
8087
8159
8093
8136
8129
8113
8169
8091
8178
8067
8191
8078
8157
8099
8106
8148
8076
8197
8046
8215
8039
8208
8059
8180
8090
8126
8123
8104
8147
8102
8139
8121
8106
8138
8082
8197
8062
8231
8036
8209
8044
8170
8077
8134
8137
8109
8196
8098
8215
8091
8179
8102
8148
8130
8109
8145
8087
8153
8063
8107
8093
8104
8162
8081
8206
8046
8240
8044
8221
8044
8194
8076
8142
8109
8108
8144
8092
8145
8098
8133
8135
8116
8164
8076
8185
8062
8201
8065
8165
8077
8098
8113
8065
8168
8035
8184
8022
8180
8035
8158
8085
8131
8142
8145
8228
8169
8204
8160
8155
8194
8123
8231
8074
8230
8020
8157
7977
8122
8017
8102
8087
8081
8132
8073
8177
8072
8156
8081
8128
8123
8100
8145
8072
8155
8070
8158
8095
8116
8140
8073
8187
8043
8215
8032
8228
8059
8212
8072
8170
8124
8133
8142
8102
8149
8101
8131
8124
8098
8150
8074
8192
8054
8204
8061
8188
8087
8155
8131
8099
8181
8069
8190
8042
8179
8061
8175
8100
8151
8135
8115
8151
8096
8142
8107
8123
8144
8085
8190
8056
8216
8038
8239
8041
8205
8057
8158
8099
8114
8150
8095
8179
8089
8165
8105
8141
8137
8120
8178
8097
8197
8075
8167
8088
8126
8112
8076
8163
8036
8194
8018
8205
8037
8200
8082
8187
8121
8124
8143
8123
8169
8134
8164
8145
8125
8186
8085
8197
8055
8212
8035
8186
8058
8160
8103
8109
8160
8086
8201
8068
8198
8063
8155
8090
8130
8124
8101
8145
8089
8151
8102
8134
8133
8099
8186
8059
8209
8031
8229
8024
8210
8047
8166
8083
8125
8137
8103
8155
8094
8161
8117
8144
8142
8102
8169
8083
8193
8061
8182
8079
8148
8106
8109
8169
8076
8207
8035
8203
8036
8203
8069
8176
8111
8141
8154
8120
8147
8111
8139
8132
8117
8167
8066
8196
8053
8229
8040
8207
8055
8172
8086
8110
8108
8060
8168
8071
8196
8084
8171
8106
8137
8136
8113
8154
8096
8162
8092
8136
8126
8108
8171
8065
8214
8046
8239
8042
8240
8065
8206
8108
8168
8157
8129
8164
8103
8149
8099
8120
8117
8074
8137
8056
8187
8060
8210
8085
8179
8108
8141
8158
8076
8187
8041
8188
8035
8180
8056
8150
8080
8102
8110
8089
8123
8082
8130
8115
8114
8177
8091
8215
8080
8278
8094
8274
8082
8212
8082
8139
8116
8092
8158
8070
8164
8081
8151
8100
8132
8138
8113
8186
8125
8213
8105
8164
8114
8119
8162
8084
8214
8047
8222
8033
8227
8045
8192
8090
8167
8130
8133
8158
8100
8145
8103
8128
8142
8107
8187
8074
8193
8055
8212
8063
8189
8091
8144
8132
8077
8160
8043
8188
8035
8183
8067
8172
8113
8149
8142
8109
8141
8082
8131
8100
8111
8159
8084
8200
8044
8212
8025
8218
8043
8199
8066
8149
8102
8103
8137
8084
8159
8084
8151
8110
8126
8127
8097
8164
8095
8219
8112
8192
8107
8142
8160
8108
8203
8059
8217
8032
8222
8051
8194
8067
8165
8119
8130
8147
8109
8145
8105
8134
8138
8104
8189
8076
8215
8053
8218
8061
8200
8074
8159
8130
8110
8169
8074
8191
8066
8199
8081
8168
8109
8132
8131
8103
8155
8094
8155
8114
8137
8153
8090
8186
8058
8224
8040
8241
8042
8209
8060
8180
8109
8136
8140
8101
8161
8099
8164
8120
8146
8156
8102
8177
8072
8199
8074
8196
8104
8169
8141
8104
8174
8060
8192
8034
8207
8034
8156
8036
8138
8108
8130
8142
8116
8162
8115
8146
8129
8102
8179
8082
8220
8059
8246
8060
8221
8063
8169
8091
8113
8129
8086
8183
8081
8192
8083
8157
8104
8125
8144
8104
8170
8102
8182
8116
8162
8144
8094
8153
8042
8193
8024
8224
8025
8204
8051
8188
8094
8134
8131
8104
8153
8106
8153
8105
8119
8140
8096
8178
8072
8211
8069
8219
8089
8187
8127
8110
8147
8057
8177
8031
8187
8038
8197
8074
8152
8107
8140
8159
8130
8204
8163
8196
8165
8109
8160
8057
8185
8025
8218
8036
8230
8068
8201
8103
8155
8150
8113
8176
8089
8171
8090
8153
8111
8121
8135
8087
8157
8070
8155
8075
8148
8105
8103
8161
8067
8202
8034
8213
8024
8211
8056
8197
8105
8176
8128
8098
8136
8096
8145
8117
8145
8147
8071
8136
8041
8215
8087
8239
8084
8205
8116
8161
8161
8104
8187
8074
8207
8074
8204
8081
8171
8121
8132
8140
8104
8150
8091
8136
8104
8098
8152
8069
8194
8060
8263
8065
8251
8061
8213
8089
8144
8106
8107
8165
8099
8172
8102
8155
8117
8121
8141
8090
8166
8071
8189
8072
8162
8099
8132
8153
8080
8193
8047
8214
8043
8229
8054
8194
8090
8152
8120
8125
8150
8105
8157
8120
8134
8146
8102
8195
8073
8227
8055
8235
8069
8201
8088
8160
8132
8102
8169
8074
8194
8066
8178
8090
8169
8124
8126
8129
8080
8140
8079
8151
8113
8129
8160
8087
8202
8053
8221
8038
8233
8039
8192
8066
8175
8123
8132
8158
8099
8158
8091
8154
8124
8125
8148
8091
8178
8072
8202
8072
8184
8099
8155
8138
8095
8181
8070
8216
8042
8228
8055
8177
8070
8144
8117
8126
8153
8119
8162
8129
8149
8158
8111
8182
8043
8174
8007
8190
8026
8198
8072
8183
8143
8145
8181
8109
8208
8108
8231
8122
8199
8131
8138
8157
8104
8173
8090
8168
8093
8117
8128
8095
8192
8061
8222
8037
8235
8032
8206
8058
8165
8096
8122
8123
8094
8143
8090
8143
8121
8129
8171
8114
8207
8059
8201
8068
8205
8087
8164
8118
8133
8188
8086
8212
8062
8233
8082
8216
8102
8168
8127
8131
8154
8105
8150
8105
8137
8135
8093
8163
8056
8216
8050
8248
8048
8222
8058
8182
8107
8145
8156
8094
8153
8063
8146
8066
8122
8092
8088
8128
8070
8149
8067
8176
8109
8188
8170
8131
8175
8059
8206
8046
8249
8058
8224
8076
8196
8097
8127
8125
8111
8159
8116
8159
8129
8128
8150
8082
8173
8048
8206
8052
8208
8069
8175
8097
8123
8145
8072
8185
8069
8218
8082
8208
8108
8169
8140
8143
8165
8104
8158
8110
8144
8120
8093
8171
8081
8219
8047
8238
8050
8232
8070
8212
8105
8158
8129
8109
8174
8097
8165
8105
8150
8129
8124
8146
8078
8160
8070
8186
8081
8173
8121
8127
8174
8086
8222
8057
8241
8051
8227
8070
8197
8098
8141
8130
8115
8149
8111
8153
8120
8106
8138
8074
8170
8051
8205
8048
8224
8069
8210
8117
8177
8177
8154
8233
8119
8233
8093
8187
8101
8161
8132
8120
8135
8080
8150
8086
8158
8125
8128
8167
8082
8209
8046
8217
8027
8220
8041
8200
8078
8158
8119
8120
8166
8107
8197
8129
8157
8125
8124
8175
8109
8224
8078
8208
8093
8197
8119
8158
8163
8098
8199
8064
8226
8056
8210
8052
8184
8089
8121
8104
8102
8151
8121
8171
8133
8141
8173
8104
8204
8060
8228
8043
8219
8046
8197
8091
8180
8149
8124
8173
8079
8184
8064
8163
8089
8144
8114
8108
8142
8081
8163
8083
8165
8108
8120
8155
8081
8197
8054
8231
8046
8248
8055
8210
8069
8161
8108
8119
8137
8101
8161
8111
8142
8125
8109
8146
8062
8164
8047
8204
8070
8200
8093
8167
8148
8109
8186
8075
8202
8046
8205
8066
8174
8083
8146
8128
8127
8160
8112
8160
8126
8137
8158
8096
8192
8057
8218
8041
8237
8048
8215
8074
8179
8121
8129
8158
8084
8161
8076
8163
8099
8150
8139
8125
8160
8087
8172
8079
8199
8150
8187
8178
8118
8197
8065
8227
8050
8241
8046
8215
8088
8180
8108
8122
8131
8099
8150
8097
8135
8124
8118
8165
8081
8209
8064
8216
8060
8204
8074
8170
8128
8127
8171
8086
8200
8068
8215
8082
8206
8119
8160
8133
8132
8170
8127
8182
8114
8132
8126
8088
8165
8050
8207
8031
8229
8045
8231
8076
8200
8122
8156
8148
8100
8157
8089
8158
8104
8139
8128
8115
8162
8087
8194
8079
8192
8091
8160
8135
8111
8176
8063
8206
8042
8223
8047
8216
8074
8182
8110
8156
8166
8127
8149
8098
8149
8153
8147
8209
8112
8241
8076
8238
8057
8219
8068
8183
8104
8143
8148
8069
8168
8068
8208
8092
8187
8109
8158
8146
8133
8173
8106
8179
8109
8159
8147
8123
8184
8078
8214
8048
8233
8024
8208
8050
8190
8087
8155
8126
8113
8169
8104
8164
8107
8134
8122
8091
8159
8067
8175
8054
8178
8066
8169
8115
8142
8165
8096
8241
8111
8269
8082
8224
8063
8176
8107
8148
8146
8119
8151
8103
8136
8119
8117
8175
8092
8212
8070
8245
8048
8229
8072
8191
8087
8146
8136
8101
8165
8074
8189
8076
8168
8097
8137
8128
8102
8155
8084
8158
8089
8159
8123
8122
8173
8085
8214
8052
8246
8044
8231
8053
8201
8084
8164
8130
8124
8160
8115
8171
8121
8141
8138
8114
8172
8078
8203
8071
8219
8089
8200
8110
8149
8152
8089
8191
8061
8209
8057
8221
8070
8185
8101
8130
8130
8108
8151
8097
8146
8125
8133
8173
8095
8223
8087
8266
8049
8229
8054
8219
8094
8179
8144
8125
8165
8082
8162
8071
8141
8083
8111
8095
8065
8161
8092
8190
8088
8188
8147
8169
8184
8108
8215
8062
8230
8043
8230
8045
8185
8075
8169
8116
8133
8154
8107
8156
8112
8133
8135
8100
8164
8075
8208
8055
8212
8057
8194
8085
8165
8145
8113
8182
8072
8206
8074
8225
8083
8171
8115
8158
8158
8136
8182
8123
8183
8123
8133
8160
8093
8201
8064
8247
8056
8263
8069
8227
8078
8172
8099
8105
8126
8072
8148
8074
8150
8105
8131
8148
8115
8183
8101
8227
8131
8242
8158
8192
8182
8131
8211
8085
8234
8055
8236
8044
8203
8073
8171
8118
8133
8150
8111
8153
8115
8143
8142
8118
8191
8076
8228
8052
8221
8059
8217
8084
8173
8136
8138
8182
8102
8207
8080
8211
8103
8187
8125
8142
8134
8098
8143
8093
8157
8111
8138
8151
8105
8193
8060
8219
8029
8226
8035
8220
8070
8180
8102
8129
8162
8118
8190
8116
8173
8140
8160
8171
8117
8179
8076
8191
8054
8174
8077
8144
8114
8095
8166
8062
8205
8046
8219
8050
8208
8087
8174
8117
8128
8144
8104
8153
8109
8131
8131
8102
8178
8076
8217
8055
8235
8040
8216
8072
8191
8113
8145
8178
8117
8211
8097
8188
8075
8153
8102
8120
8119
8082
8151
8092
8183
8108
8161
8144
8113
8185
8067
8217
8042
8241
8048
8258
8093
8205
8104
8154
8148
8138
8191
8123
8175
8134
8144
8146
8098
8181
8076
8213
8066
8200
8085
8181
8134
8144
8171
8085
8208
8066
8222
8062
8205
8094
8191
8126
8139
8161
8120
8152
8103
8123
8111
8091
8151
8064
8197
8039
8234
8031
8208
8047
8185
8105
8166
8152
8120
8189
8089
8191
8090
8149
8093
8114
8131
8094
8164
8084
8187
8096
8163
8142
8138
8201
8120
8258
8082
8253
8035
8211
8047
8192
8108
8171
8130
8115
8146
8103
8152
8119
8140
8156
8106
8193
8072
8222
8062
8210
8068
8188
8108
8144
8158
8106
8200
8082
8223
8070
8208
8092
8190
8131
8136
8153
8110
8154
8102
8144
8112
8100
8160
8067
8199
8037
8229
8039
8251
8068
8212
8107
8202
8189
8169
8200
8113
8169
8095
8149
8118
8132
8166
8117
8206
8106
8210
8093
8181
8113
8138
8162
8090
8214
8060
8232
8047
8215
8059
8192
8081
8144
8136
8142
8170
8120
8152
8105
8118
8136
8079
8181
8053
8224
8061
8230
8072
8208
8099
8161
8144
8110
8186
8092
8216
8085
8204
8095
8151
8105
8119
8132
8089
8149
8089
8131
8080
8097
8159
8090
8211
8070
8256
8055
8256
8059
8219
8090
8185
8149
8152
8169
8110
8168
8099
8147
8117
8119
8143
8094
8185
8082
8209
8083
8193
8102
8153
8155
8107
8192
8065
8218
8053
8231
8063
8197
8084
8152
8123
8117
8143
8110
8151
8118
8131
8142
8105
8188
8068
8245
8076
8257
8064
8214
8095
8200
8162
8166
8197
8107
8203
8085
8198
8092
8159
8121
8131
8156
8112
8172
8099
8177
8118
8156
8157
8104
8199
8067
8227
8047
8248
8055
8225
8084
8182
8118
8141
8166
8124
8177
8119
8155
8124
8121
8159
8091
8183
8065
8200
8064
8201
8096
8162
8136
8109
8180
8075
8217
8064
8216
8064
8176
8080
8152
8119
8118
8144
8108
8155
8115
8137
8137
8102
8184
8071
8224
8049
8244
8053
8229
8071
8178
8111
8147
8165
8105
8187
8095
8185
8105
8164
8133
8123
8153
8099
8175
8087
8182
8103
8156
8150
8106
8187
8064
8221
8044
8248
8050
8218
8076
8189
8109
8144
8151
8125
8168
8119
8154
8129
8126
8164
8093
8203
8068
8215
8060
8209
8076
8178
8124
8137
8171
8091
8201
8072
8207
8067
8198
8096
8163
8138
8151
8175
8106
8149
8100
8137
8141
8124
8200
8095
8238
8064
8259
8060
8235
8072
8198
8098
8150
8148
8105
8144
8062
8146
8096
8160
8139
8133
8170
8105
8201
8089
8192
8090
8163
8129
8127
8177
8090
8221
8069
8258
8059
8240
8078
8197
8095
8129
8119
8111
8144
8100
8142
8125
8120
8150
8089
8197
8067
8242
8081
8274
8124
8238
8136
8159
8163
8101
8189
8082
8209
8078
8205
8112
8174
8142
8139
8167
8114
8174
8120
8183
8158
8148
8195
8088
8234
8067
8261
8053
8246
8062
8196
8079
8146
8117
8108
8153
8106
8176
8136
8182
8150
8125
8166
8104
8209
8089
8210
8094
8189
8143
8160
8173
8099
8203
8063
8226
8058
8231
8077
8198
8105
8145
8136
8124
8158
8114
8160
8135
8130
8158
8092
8196
8062
8231
8042
8217
8053
8198
8082
8157
8138
8106
8180
8088
8197
8086
8183
8104
8152
8133
8128
8165
8107
8185
8096
8166
8114
8139
8173
8089
8198
8046
8217
8030
8235
8051
8207
8079
8167
8126
8134
8155
8114
8165
8112
8146
8131
8112
8171
8093
8220
8082
8229
8092
8197
8095
8155
8156
8099
8181
8056
8200
8048
8207
8059
8175
8095
8145
8134
8124
8160
8112
8155
8130
8136
8163
8103
8201
8062
8239
8045
8228
8056
8213
8081
8176
8121
8123
8169
8099
8193
8090
8180
8117
8161
8143
8121
8162
8092
8185
8084
8174
8106
8149
8148
8077
8165
8038
8215
8048
8251
8065
8228
8092
8194
8129
8140
8144
8110
8156
8111
8146
8129
8120
8169
8087
8211
8064
8220
8061
8209
8098
8168
8140
8131
8172
8080
8209
8072
8209
8070
8178
8096
8150
8131
8122
8159
8108
8157
8123
8145
8164
8109
8195
8067
8227
8043
8242
8038
8223
8080
8190
8122
8163
8172
8125
8192
8101
8180
8126
8157
8147
8117
8164
8093
8207
8103
8204
8114
8176
8155
8136
8191
8089
8235
8067
8257
8072
8238
8076
8176
8106
8142
8147
8114
8152
8102
8139
8139
8126
8181
8089
8213
8065
8237
8065
8225
8081
8197
8137
8159
8171
8101
8186
8052
8162
8042
8141
8080
8132
8122
8101
8132
8082
8178
8142
8211
8223
8195
8244
8114
8260
8080
8274
8068
8254
8078
8208
8107
8171
8154
8118
8179
8107
8172
8116
8153
8141
8109
8172
8081
8198
8066
8189
8084
8173
8141
8137
8176
8084
8208
8059
8227
8052
8231
8085
8193
8112
8148
8147
8122
8162
8122
8157
8140
8134
8174
8089
8202
8051
8229
8041
8217
8055
8195
8096
8154
8144
8105
8184
8095
8207
8096
8177
8107
8148
8142
8120
8160
8089
8167
8097
8155
8117
8115
8176
8085
8209
8053
8244
8042
8245
8065
8206
8090
8165
8131
8129
8161
8109
8162
8113
8144
8145
8117
8174
8079
8205
8062
8212
8077
8188
8110
8160
8161
8105
8200
8071
8212
8056
8223
8093
8202
8131
8183
8158
8132
8168
8123
8180
8140
8135
8162
8087
8209
8050
8203
8018
8223
8055
8219
8099
8179
8139
8119
8174
8095
8184
8093
8178
8117
8159
8152
8121
8184
8106
8206
8108
8193
8129
8158
8176
8105
8213
8065
8248
8061
8253
8063
8215
8099
8189
8138
8150
8162
8115
8165
8123
8152
8152
8122
8187
8085
8232
8070
8245
8076
8212
8100
8174
8154
8134
8197
8097
8224
8081
8226
8092
8197
8120
8146
8140
8113
8147
8097
8149
8118
8142
8163
8096
8196
8055
8237
8040
8240
8042
8214
8076
8175
8113
8129
8168
8113
8185
8103
8168
8110
8130
8136
8089
8159
8073
8172
8067
8181
8093
8155
8150
8107
8199
8080
8223
8053
8244
8057
8207
8082
8175
8120
8135
8146
8113
8158
8115
8148
8144
8121
8190
8084
8219
8056
8239
8053
8208
8078
8179
8128
8133
8174
8102
8207
8084
8211
8103
8204
8134
8163
8153
8120
8172
8108
8178
8109
8152
8151
8107
8197
8072
8230
8054
8255
8061
8225
8076
8201
8118
8166
8160
8125
8186
8113
8174
8136
8159
8160
8120
8188
8092
8220
8085
8211
8100
8181
8143
8133
8179
8088
8219
8065
8242
8070
8231
8096
8187
8126
8140
8140
8117
8156
8114
8143
8131
8114
8181
8077
8209
8048
8238
8075
8263
8092
8199
8122
8174
8182
8109
8180
8070
8169
8076
8160
8107
8129
8145
8119
8186
8108
8202
8145
8202
8176
8143
8187
8069
8214
8046
8241
8037
8222
8058
8195
8110
8187
8179
8149
8162
8112
8168
8145
8169
8200
8138
8215
8083
8212
8061
8202
8066
8177
8116
8129
8140
8080
8199
8076
8227
8080
8230
8088
8172
8123
8141
8143
8115
8157
8110
8146
8123
8119
8175
8084
8220
8068
8251
8052
8251
8063
8210
8102
8169
8155
8118
8174
8093
8185
8094
8164
8110
8124
8147
8102
8172
8088
8186
8091
8178
8120
8123
8170
8085
8204
8058
8231
8048
8242
8063
8210
8109
8170
8131
8129
8147
8106
8155
8125
8140
8157
8121
8207
8087
8230
8072
8226
8076
8209
8109
8162
8153
8097
8170
8061
8189
8058
8189
8083
8167
8113
8135
8151
8127
8180
8112
8161
8124
8134
8167
8097
8208
8063
8247
8060
8252
8059
8211
8079
8174
8141
8130
8172
8105
8186
8107
8169
8123
8145
8164
8103
8184
8083
8195
8092
8201
8124
8160
8174
8131
8226
8096
8257
8073
8250
8074
8218
8111
8187
8139
8138
8162
8123
8159
8120
8142
8152
8116
8199
8078
8236
8061
8241
8071
8219
8094
8187
8155
8135
8170
8075
8181
8069
8183
8088
8172
8121
8147
8162
8123
8179
8115
8185
8133
8154
8160
8094
8191
8053
8222
8035
8234
8048
8223
8081
8192
8127
8159
8168
8131
8190
8121
8169
8130
8138
8158
8100
8187
8087
8220
8087
8200
8109
8173
8150
8132
8192
8084
8224
8062
8239
8076
8224
8107
8183
8137
8141
8162
8130
8182
8145
8159
8155
8123
8199
8084
8221
8049
8241
8049
8218
8078
8182
8116
8144
8159
8089
8193
8089
8181
8088
8173
8140
8156
8166
8108
8173
8099
8198
8124
8165
8155
8112
8200
8077
8240
8055
8252
8054
8225
8076
8189
8106
8154
8149
8118
8162
8111
8158
8128
8131
8159
8089
8182
8065
8209
8066
8196
8079
8184
8147
8145
8189
8101
8206
8057
8209
8062
8188
8081
8159
8119
8092
8087
8055
8139
8106
8132
8123
8096
8199
8102
8268
8094
8293
8095
8286
8117
8223
8119
8149
8144
8105
8175
8095
8181
8103
8159
8123
8126
8161
8096
8174
8090
8190
8098
8169
8143
8117
8188
8087
8224
8052
8246
8063
8247
8087
8212
8126
8175
8149
8122
8143
8087
8129
8115
8131
8183
8116
8222
8087
8233
8059
8203
8056
8172
8110
8156
8173
8107
8204
8082
8215
8070
8206
8102
8166
8131
8133
8157
8117
8172
8109
8152
8138
8131
8194
8096
8239
8073
8268
8058
8248
8068
8219
8119
8177
8150
8131
8186
8112
8177
8105
8155
8126
8120
8152
8097
8187
8088
8208
8099
8185
8142
8153
8183
8100
8222
8075
8248
8061
8242
8078
8204
8106
8174
8140
8129
8164
8121
8160
8126
8126
8147
8094
8198
8078
8240
8064
8232
8076
8210
8102
8160
8164
8124
8199
8090
8203
8082
8189
8098
8159
8128
8130
8174
8118
8176
8109
8177
8135
8136
8173
8093
8215
8061
8249
8050
8245
8057
8217
8097
8186
8149
8138
8180
8110
8176
8109
8141
8116
8119
8166
8086
8180
8069
8208
8084
8195
8109
8155
8165
8104
8206
8071
8228
8058
8232
8077
8197
8103
8155
8137
8135
8167
8112
8164
8128
8134
8172
8107
8203
8072
8242
8062
8251
8066
8217
8090
8180
8144
8138
8179
8100
8201
8090
8184
8107
8159
8135
8129
8165
8103
8191
8103
8190
8132
8159
8183
8116
8220
8072
8235
8050
8258
8059
8226
8091
8191
8131
8147
8173
8124
8174
8122
8159
8143
8127
8186
8097
8222
8078
8226
8085
8215
8108
8167
8144
8128
8193
8090
8221
8071
8232
8079
8202
8101
8156
8132
8130
8170
8116
8170
8133
8146
8162
8109
8196
8067
8242
8054
8251
8057
8213
8081
8189
8119
8144
8170
8108
8192
8098
8183
8110
8158
8141
8125
8170
8097
8192
8091
8188
8112
8158
8156
8112
8207
8075
8227
8045
8236
8046
8206
8074
8186
8123
8152
8151
8123
8166
8116
8163
8154
8144
8190
8095
8208
8068
8242
8072
8220
8087
8179
8131
8133
8176
8085
8205
8072
8216
8073
8181
8099
8152
8131
8119
8149
8104
8168
8117
8142
8157
8118
8196
8068
8217
8047
8255
8051
8236
8070
8192
8106
8152
8164
8116
8191
8113
8182
8121
8156
8137
8113
8173
8091
8200
8097
8209
8109
8177
8145
8121
8179
8087
8230
8076
8263
8072
8235
8079
8177
8101
8121
8123
8104
8153
8112
8148
8140
8123
8179
8087
8211
8063
8237
8061
8230
8081
8188
8120
8163
8175
8113
8205
8091
8213
8095
8179
8111
8153
8134
8117
8156
8099
8178
8110
8164
8154
8125
8195
8099
8241
8070
8264
8053
8230
8061
8194
8099
8161
8126
8096
8134
8090
8160
8107
8139
8134
8111
8167
8082
8200
8071
8210
8101
8212
8154
8156
8194
8135
8245
8094
8255
8071
8241
8091
8200
8111
8153
8163
8154
8193
8140
8166
8148
8141
8175
8094
8217
8074
8244
8054
8234
8069
8203
8100
8171
8170
8126
8194
8099
8207
8096
8180
8115
8149
8143
8123
8173
8108
8189
8103
8170
8131
8148
8189
8101
8220
8062
8251
8049
8248
8067
8213
8098
8171
8133
8132
8161
8115
8162
8128
8151
8145
8116
8173
8079
8206
8073
8222
8080
8192
8106
8155
8161
8105
8195
8075
8225
8072
8231
8086
8193
8109
8147
8142
8126
8157
8107
8155
8122
8128
8174
8108
8216
8075
8241
8050
8241
8062
8215
8094
8184
8150
8152
8185
8112
8199
8104
8176
8112
8154
8146
8112
8173
8101
8208
8109
8195
8124
8148
8155
8100
8203
8066
8246
8079
8275
8084
8218
8086
8182
8138
8143
8165
8120
8171
8128
8158
8153
8120
8192
8090
8235
8071
8233
8079
8216
8104
8177
8149
8131
8182
8090
8218
8086
8214
8094
8177
8118
8152
8146
8124
8177
8116
8178
8138
8143
8165
8097
8203
8070
8241
8044
8250
8059
8222
8080
8183
8112
8143
8163
8115
8184
8096
8162
8110
8143
8144
8119
8184
8095
8204
8083
8193
8109
8167
8151
8110
8197
8071
8218
8054
8234
8065
8210
8076
8176
8112
8128
8141
8117
8157
8121
8146
8142
8124
8202
8100
8248
8073
8246
8065
8222
8085
8183
8125
8119
8167
8093
8177
8052
8171
8074
8165
8113
8148
8150
8127
8183
8121
8188
8117
8162
8160
8122
8203
8080
8233
8045
8245
8050
8228
8072
8200
8117
8167
8161
8123
8183
8112
8169
8131
8153
8157
8114
8179
8092
8215
8092
8218
8094
8183
8155
8148
8180
8085
8206
8061
8239
8072
8234
8100
8201
8135
8148
8155
8117
8158
8118
8153
8140
8125
8186
8081
8217
8065
8251
8055
8234
8075
8198
8107
8155
8161
8114
8195
8095
8208
8106
8185
8127
8147
8149
8111
8177
8096
8181
8107
8168
8147
8140
8189
8087
8228
8063
8257
8060
8252
8075
8211
8109
8169
8139
8111
8132
8088
8151
8116
8137
8144
8106
8177
8072
8208
8067
8217
8089
8199
8132
8146
8144
8073
8188
8071
8222
8073
8220
8093
8193
8132
8165
8183
8173
8240
8169
8200
8164
8135
8174
8083
8211
8054
8248
8052
8249
8077
8227
8113
8184
8151
8123
8178
8092
8193
8097
8167
8119
8144
8152
8115
8187
8093
8198
8095
8177
8123
8141
8174
8099
8210
8058
8243
8057
8251
8075
8214
8098
8169
8129
8127
8162
8124
8177
8137
8153
8152
8102
8189
8075
8231
8066
8226
8068
8201
8098
8163
8158
8115
8197
8090
8225
8084
8209
8087
8162
8112
8137
8152
8116
8173
8118
8173
8120
8124
8173
8107
8225
8077
8255
8048
8250
8060
8227
8099
8192
8150
8138
8176
8111
8170
8094
8153
8118
8131
8166
8119
8192
8089
8206
8090
8195
8117
8165
8172
8112
8211
8070
8228
8051
8243
8071
8215
8097
8175
8128
8136
8171
8128
8172
8139
8153
8156
8111
8183
8069
8231
8053
8227
8067
8228
8107
8182
8143
8154
8205
8117
8225
8097
8212
8102
8176
8116
8138
8154
8108
8165
8090
8146
8084
8112
8155
8122
8218
8076
8255
8072
8273
8074
8238
8093
8197
8128
8155
8160
8120
8167
8105
8156
8124
8138
8173
8112
8208
8094
8226
8088
8209
8105
8173
8154
8142
8198
8082
8225
8071
8247
8078
8216
8103
8183
8131
8145
8164
8123
8171
8127
8151
8168
8124
8200
8086
8223
8054
8246
8055
8227
8081
8191
8133
8151
8173
8109
8202
8096
8198
8106
8168
8131
8148
8167
8108
8178
8101
8184
8110
8154
8140
8108
8193
8073
8219
8050
8252
8071
8266
8102
8214
8117
8147
8143
8126
8174
8128
8170
8139
8140
8163
8100
8202
8078
8220
8076
8227
8098
8189
8134
8150
8175
8096
8206
8065
8218
8072
8211
8097
8168
8132
8136
8158
8122
8174
8120
8153
8144
8122
8189
8081
8219
8054
8250
8049
8227
8070
8200
8108
8161
8165
8115
8175
8102
8204
8120
8180
8144
8151
8164
8094
8160
8075
8196
8099
8164
8121
8116
8171
8080
8203
8035
8206
8022
8197
8034
8171
8089
8167
8157
8143
8171
8133
8200
8173
8206
8248
8183
8272
8114
8262
8100
8266
8104
8218
8130
8163
8165
8111
8206
8089
8225
8086
8228
8118
8190
8143
8139
8164
8107
8162
8104
8143
8122
8116
8158
8054
8180
8034
8243
8054
8259
8076
8227
8105
8183
8149
8127
8178
8112
8190
8124
8173
8136
8134
8166
8102
8204
8093
8214
8099
8195
8117
8138
8164
8092
8213
8070
8226
8050
8233
8066
8212
8115
8171
8141
8132
8159
8116
8159
8127
8130
8155
8095
8202
8071
8230
8057
8229
8068
8210
8096
8170
8149
8134
8187
8100
8204
8086
8190
8106
8179
8142
8145
8169
8124
8193
8118
8178
8126
8134
8170
8095
8209
8063
8253
8050
8253
8065
8227
8097
8185
8125
8122
8143
8107
8169
8116
8162
8135
8131
8176
8103
8205
8082
8212
8089
8215
8123
8179
8163
8127
8205
8087
8222
8058
8229
8076
8209
8111
8166
8141
8140
8164
8120
8165
8134
8147
8165
8108
8198
8075
8243
8065
8259
8065
8226
8090
8191
8137
8144
8169
8100
8193
8096
8195
8113
8166
8143
8139
8160
8103
8190
8095
8187
8115
8156
8162
8105
8197
8069
8236
8045
8243
8048
8212
8079
8183
8117
8140
8157
8131
8172
8128
8161
8141
8129
8185
8105
8228
8078
8229
8085
8220
8105
8185
8143
8135
8190
8098
8227
8075
8236
8080
8206
8113
8169
8149
8144
8174
8130
8172
8131
8164
8163
8123
8207
8088
8248
8062
8258
8057
8241
8090
8202
8122
8154
8161
8108
8192
8103
8183
8108
8166
8140
8118
8151
8086
8193
8115
8223
8122
8180
8154
8140
8222
8124
8253
8063
8252
8074
8246
8085
8191
8104
8132
8129
8097
8145
8105
8143
8127
8124
8183
8100
8235
8105
8295
8119
8269
8107
8199
8132
8147
8167
8093
8189
8073
8215
8084
8203
8114
8172
8148
8138
8174
8116
8167
8113
8145
8132
8097
8150
8048
8199
8048
8253
8058
8251
8072
8196
8102
8160
8154
8122
8185
8116
8186
8127
8161
8139
8121
8174
8094
8199
8083
8205
8092
8182
8141
8143
8186
8090
8217
8063
8229
8058
8244
8099
8227
8145
8191
8176
8141
8174
8117
8151
8132
8134
8183
8104
8214
8065
8240
8060
8230
8078
8204
8110
8163
8159
8113
8196
8090
8210
8096
8188
8106
8155
8142
8126
8174
8107
8186
8111
8173
8151
8154
8201
8104
8229
8049
8245
8043
8235
8049
8201
8093
8178
8155
8143
8181
8118
8172
8112
8156
8146
8127
8182
8101
8214
8085
8216
8090
8199
8121
8152
8167
8101
8197
8065
8218
8056
8225
8082
8200
8114
8154
8144
8125
8166
8123
8164
8138
8141
8183
8104
8206
8066
8237
8050
8233
8063
8218
8098
8179
8152
8147
8197
8108
8204
8104
8183
8104
8145
8140
8126
8176
8106
8199
8102
8182
8129
8151
8174
8104
8214
8075
8250
8050
8248
8071
8229
8098
8190
8135
8139
8175
8125
8169
8136
8163
8157
8125
8191
8090
8223
8074
8226
8081
8199
8106
8175
8159
8131
8209
8094
8222
8076
8217
8082
8194
8106
8149
8138
8127
8166
8110
8160
8129
8145
8165
8103
8204
8070
8246
8055
8258
8065
8234
8097
8199
8152
8166
8181
8108
8188
8099
8168
8104
8141
8140
8123
8180
8104
8206
8094
8195
8118
8174
8168
8131
8209
8083
8241
8061
8255
8071
8222
8089
8191
8132
8155
8164
8130
8167
8124
8152
8150
8128
8192
8090
8216
8070
8234
8051
8199
8075
8163
8114
8129
8178
8092
8199
8069
8212
8099
8202
8135
8199
8194
8158
8188
8122
8166
8109
8159
8170
8125
8181
8034
8197
8051
8264
8062
8242
8089
8219
8147
8171
8171
8125
8184
8104
8172
8117
8143
8141
8112
8178
8087
8195
8079
8196
8103
8171
8146
8132
8191
8089
8228
8069
8253
8071
8231
8083
8192
8124
8138
8138
8106
8160
8123
8151
8140
8124
8188
8095
8224
8062
8251
8066
8234
8083
8195
8134
8157
8175
8109
8199
8092
8210
8100
8190
8124
8170
8164
8145
8220
8129
8195
8118
8164
8152
8129
8208
8097
8239
8071
8252
8046
8232
8070
8208
8116
8177
8158
8121
8166
8118
8173
8128
8146
8148
8122
8202
8091
8210
8084
8230
8126
8224
8162
8156
8187
8102
8223
8085
8257
8088
8241
8108
8210
8129
8158
8169
8148
8186
8137
8182
8156
8142
8195
8091
8208
8050
8242
8047
8230
8077
8209
8115
8177
8153
8121
8182
8092
8194
8097
8172
8119
8152
8157
8124
8175
8097
8191
8099
8167
8123
8135
8180
8093
8222
8062
8253
8058
8249
8068
8215
8100
8169
8136
8129
8164
8124
8173
8131
8154
8158
8120
8195
8083
8226
8072
8224
8078
8197
8109
8157
8164
8113
8204
8084
8224
8080
8229
8101
8202
8133
8154
8158
8121
8167
8113
8161
8137
8142
8186
8108
8222
8070
8251
8062
8266
8082
8229
8098
8178
8149
8147
8180
8103
8170
8099
8173
8122
8147
8154
8120
8186
8100
8194
8089
8184
8116
8141
8160
8095
8200
8048
8202
8018
8204
8050
8208
8096
8176
8130
8139
8160
8117
8156
8122
8147
8158
8118
8193
8078
8223
8058
8216
8047
8192
8085
8167
8141
8118
8179
8084
8203
8075
8230
8117
8235
8162
8178
8169
8119
8170
8103
8188
8161
8174
8183
8098
8205
8080
8262
8065
8263
8073
8234
8099
8197
8147
8159
8179
8116
8185
8111
8178
8133
8148
8169
8125
8226
8099
8218
8086
8196
8104
8155
8162
8118
8201
8082
8235
8058
8241
8067
8205
8091
8188
8137
8144
8161
8130
8171
8130
8155
8151
8121
8197
8085
8238
8062
8243
8058
8227
8096
8201
8150
8158
8184
8104
8202
8086
8202
8099
8178
8122
8135
8152
8123
8183
8119
8196
8126
8169
8165
8120
8210
8083
8240
8061
8253
8053
8228
8067
8184
8112
8156
8161
8121
8166
8118
8172
8136
8146
8168
8108
8199
8082
8211
8073
8207
8101
8195
8159
8153
8196
8096
8211
8056
8223
8066
8211
8096
8180
8131
8144
8162
8128
8167
8123
8157
8149
8132
8205
8090
8229
8064
8254
8054
8233
8081
8200
8115
8163
8167
8112
8185
8098
8194
8098
8168
8124
8139
8162
8112
8180
8107
8217
8159
8210
8178
8146
8196
8098
8263
8086
8279
8076
8264
8088
8208
8108
8165
8139
8122
8156
8111
8166
8131
8136
8159
8103
8211
8096
8235
8071
8213
8083
8186
8109
8158
8182
8116
8229
8102
8232
8082
8226
8106
8173
8115
8124
8146
8116
8160
8098
8134
8132
8133
8202
8104
8234
8073
8255
8050
8234
8068
8210
8098
8167
8155
8125
8185
8111
8198
8111
8181
8134
8142
8173
8121
8208
8102
8205
8096
8173
8111
8132
8166
8081
8204
8054
8248
8065
8255
8087
8229
8146
8218
8197
8169
8196
8135
8175
8139
8142
8156
8097
8195
8064
8228
8049
8217
8065
8194
8087
8149
8144
8108
8187
8079
8207
8084
8219
8102
8192
8156
8160
8160
8118
8195
8131
8195
8154
8154
8183
8102
8222
8069
8254
8053
8265
8072
8227
8099
8185
8132
8130
8169
8113
8173
8119
8177
8139
8143
8175
8107
8222
8086
8208
8084
8188
8111
8166
8160
8105
8200
8070
8228
8060
8242
8073
8207
8098
8174
8139
8140
8158
8118
8168
8136
8146
8158
8117
8205
8080
8243
8068
8258
8070
8217
8089
8170
8132
8132
8180
8097
8201
8087
8182
8098
8174
8132
8142
8160
8114
8202
8114
8185
8129
8166
8181
8121
8214
8072
8237
8058
8256
8065
8233
8092
8197
8126
8156
8173
8132
8191
8126
8168
8152
8150
8189
8110
8212
8088
8231
8089
8207
8106
8183
8159
8137
8196
8088
8227
8078
8251
8092
8235
8116
8185
8134
8132
8160
8131
8175
8124
8144
8147
8113
8197
8075
8242
8063
8254
8060
8227
8085
8197
8138
8164
8170
8106
8191
8094
8184
8106
8166
8139
8134
8172
8109
8185
8096
8188
8106
8161
8156
8132
8201
8084
8243
8057
8248
8049
8222
8081
8191
8113
8146
8142
8116
8163
8114
8143
8123
8119
8156
8077
8165
8052
8208
8059
8214
8096
8211
8149
8157
8181
8099
8204
8078
8219
8088
8228
8112
8169
8139
8136
8163
8127
8175
8120
8147
8143
8120
8188
8077
8207
8029
8222
8038
8229
8067
8225
8148
8200
8187
8129
8186
8111
8199
8122
8178
8154
8141
8180
8113
8209
8101
8210
8108
8188
8152
8136
8172
8073
8210
8050
8238
8050
8229
8066
8201
8122
8179
8174
8153
8207
8169
8216
8182
8156
8192
8115
8222
8084
8246
8074
8242
8083
8203
8116
8163
8162
8110
8191
8073
8208
8078
8193
8103
8164
8135
8146
8184
8125
8174
8110
8169
8162
8154
8204
8116
8242
8078
8265
8048
8249
8062
8209
8098
8172
8136
8132
8173
8110
8174
8115
8161
8150
8133
8171
8097
8202
8081
8202
8082
8188
8123
8161
8178
8108
8215
8065
8233
8067
8237
8085
8209
8116
8160
8140
8132
8165
8122
8162
8126
8136
8175
8110
8219
8078
8250
8061
8247
8074
8221
8105
8181
8160
8143
8193
8102
8205
8094
8191
8115
8172
8149
8129
8169
8114
8200
8114
8194
8134
8151
8180
8109
8225
8075
8255
8069
8269
8079
8226
8082
8179
8123
8128
8174
8127
8179
8129
8168
8149
8128
8175
8092
8192
8068
8201
8048
8170
8085
8164
8163
8138
8217
8096
8241
8085
8238
8085
8205
8111
8160
8147
8135
8170
8131
8165
8129
8144
8175
8116
8220
8091
8253
8065
8258
8058
8218
8086
8181
8138
8147
8180
8104
8194
8098
8184
8113
8164
8141
8130
8179
8104
8204
8102
8192
8123
8165
8162
8109
8216
8083
8254
8062
8254
8066
8232
8103
8193
8121
8138
8152
8112
8164
8121
8160
8155
8128
8186
8096
8208
8067
8225
8062
8210
8095
8188
8151
8146
8192
8099
8220
8076
8214
8084
8203
8119
8166
8147
8124
8167
8116
8184
8133
8164
8169
8109
8199
8071
8231
8062
8263
8065
8234
8089
8211
8141
8169
8177
8126
8198
8111
8177
8106
8144
8139
8121
8175
8094
8202
8075
8183
8087
8146
8139
8100
8170
8060
8224
8065
8257
8076
8253
8124
8232
8174
8193
8184
8132
8167
8114
8148
8136
8127
8185
8089
8232
8087
8271
8094
8246
8089
8193
8135
8163
8197
8127
8229
8091
8215
8090
8199
8128
8168
8154
8136
8179
8128
8197
8124
8164
8164
8123
8205
8078
8228
8045
8246
8054
8237
8080
8210
8125
8172
8166
8128
8184
8105
8172
8119
8147
8152
8121
8175
8082
8200
8071
8205
8112
8217
8171
8160
8188
8099
8233
8077
8258
8077
8236
8088
8194
8122
8151
8154
8132
8177
8139
8166
8151
8141
8192
8106
8231
8068
8235
8048
8231
8076
8201
8112
8162
8158
8114
8193
8086
8203
8091
8178
8120
8157
8148
8121
8167
8100
8188
8115
8173
8154
8129
8190
8086
8234
8066
8259
8058
8245
8064
8202
8108
8179
8167
8147
8189
8129
8174
8129
8157
8168
8126
8195
8095
8211
8047
8173
8066
8177
8128
8147
8178
8111
8214
8072
8228
8066
8225
8089
8202
8133
8162
8163
8130
8175
8125
8160
8146
8132
8186
8094
8223
8072
8256
8061
8238
8079
8221
8112
8178
8162
8125
8193
8102
8201
8098
8183
8119
8145
8144
8123
8193
8122
8209
8114
8186
8142
8139
8169
8084
8215
8065
8247
8051
8251
8071
8213
8106
8181
8142
8145
8179
8133
8184
8135
8151
8158
8124
8198
8093
8228
8074
8230
8087
8204
8118
8162
8157
8108
8196
8076
8208
8069
8221
8093
8190
8125
8148
8145
8119
8165
8113
8162
8139
8145
8178
8104
8218
8071
8258
8057
8251
8063
8219
8100
8193
8162
8152
8191
8113
8194
8103
8177
8127
8149
8156
8113
8192
8108
8207
8104
8191
8135
8157
8177
8108
8218
8075
8252
8060
8248
8071
8211
8108
8182
8142
8152
8181
8136
8176
8132
8148
8160
8121
8197
8084
8237
8061
8223
8070
8213
8104
8186
8163
8138
8202
8097
8220
8086
8226
8102
8194
8126
8149
8159
8124
8180
8121
8176
8133
8153
8175
8114
8222
8077
8253
8053
8251
8060
8229
8093
8192
8129
8150
8179
8126
8195
8114
8169
8135
8138
8163
8118
8193
8089
8210
8095
8200
8113
8168
8164
8117
8205
8077
8231
8069
8248
8069
8217
8096
8181
8142
8145
8161
8120
8162
8132
8156
8158
8122
8205
8089
8232
8073
8257
8076
8224
8101
8196
8155
8145
8185
8102
8202
8088
8207
8100
8174
8128
8154
8164
8127
8186
8116
8182
8115
8148
8151
8101
8198
8078
8236
8057
8260
8068
8229
8081
8191
8123
8157
8166
8122
8178
8122
8176
8143
8144
8164
8108
8187
8083
8228
8095
8218
8111
8191
8160
8140
8192
8091
8228
8070
8246
8076
8218
8096
8183
8133
8145
8157
8123
8167
8126
8151
8155
8121
8197
8088
8242
8064
8256
8066
8234
8081
8187
8114
8142
8161
8114
8202
8099
8196
8110
8185
8140
8148
8168
8122
8205
8119
8197
8117
8158
8138
8100
8184
8080
8234
8060
8257
8056
8242
8081
8201
8115
8170
8149
8129
8165
8118
8166
8144
8147
8192
8129
8212
8087
8232
8087
8234
8099
8197
8134
8146
8184
8107
8222
8087
8243
8087
8228
8105
8171
8124
8139
8160
8097
8140
8094
8142
8151
8135
8199
8093
8250
8076
8263
8060
8260
8084
8216
8117
8175
8173
8131
8195
8111
8199
8115
8171
8129
8130
8156
8107
8200
8099
8203
8111
8182
8154
8149
8197
8099
8224
8056
8246
8052
8226
8062
8192
8104
8168
8144
8122
8170
8147
8185
8144
8131
8162
8120
8238
8092
8247
8078
8238
8091
8217
8139
8167
8174
8117
8208
8088
8223
8087
8222
8111
8173
8137
8145
8165
8128
8177
8121
8171
8139
8123
8183
8080
8204
8041
8230
8030
8218
8050
8195
8097
8166
8152
8150
8192
8132
8218
8153
8227
8170
8157
8181
8115
8204
8097
8218
8106
8193
8135
8148
8174
8085
8204
8060
8233
8064
8247
8074
8211
8106
8168
8141
8138
8187
8156
8208
8160
8157
8176
8104
8208
8076
8258
8079
8257
8084
8211
8103
8160
8148
8132
8193
8095
8208
8091
8201
8107
8161
8129
8130
8165
8119
8177
8113
8180
8135
8153
8181
8098
8215
8053
8244
8056
8248
8060
8220
8093
8179
8132
8141
8178
8122
8177
8125
8174
8144
8131
8190
8104
8225
8083
8221
8083
8191
8115
8157
8164
8111
8209
8084
8236
8072
8241
8088
8224
8121
8167
8137
8132
8173
8133
8192
8146
8150
8181
8122
8215
8083
8239
8057
8270
8090
8240
8112
8192
8141
8125
8171
8095
8190
8088
8187
8107
8161
8140
8138
8183
8116
8200
8110
8189
8129
8164
8172
8097
8204
8075
8252
8048
8222
8033
8208
8087
8194
8140
8160
8178
8124
8168
8121
8162
8142
8129
8186
8095
8220
8081
8222
8081
8215
8105
8178
8148
8134
8193
8081
8219
8078
8242
8090
8211
8114
8172
8151
8151
8172
8125
8167
8132
8152
8168
8107
8207
8090
8250
8054
8251
8062
8221
8073
8192
8144
8170
8185
8122
8200
8101
8186
8122
8166
8150
8136
8179
8106
8202
8100
8196
8119
8176
8168
8140
8213
8088
8241
8059
8248
8062
8228
8087
8198
8129
8151
8161
8128
8164
8117
8155
8144
8136
8191
8102
8219
8076
8238
8082
8227
8101
8191
8141
8146
8179
8101
8209
8072
8213
8081
8202
8114
8171
8141
8120
8158
8099
8151
8106
8140
8137
8099
8177
8058
8207
8041
8246
8062
8256
8102
8255
8186
8222
8202
8149
8211
8141
8205
8110
8148
8146
8133
8183
8104
8203
8093
8218
8124
8195
8157
8142
8190
8087
8224
8066
8255
8073
8244
8088
8196
8119
8150
8149
8132
8173
8134
8170
8143
8138
8184
8102
8219
8070
8240
8065
8232
8081
8198
8119
8156
8164
8112
8197
8080
8208
8083
8186
8103
8149
8144
8133
8181
8123
8205
8128
8176
8149
8126
8192
8085
8226
8053
8244
8050
8229
8066
8222
8120
8182
8167
8145
8185
8115
8174
8115
8152
8154
8132
8196
8098
8211
8083
8218
8100
8198
8147
8168
8197
8116
8232
8096
8260
8075
8229
8085
8204
8124
8163
8155
8128
8171
8124
8157
8132
8124
8173
8104
8222
8066
8211
8026
8215
8065
8218
8107
8175
8155
8124
8197
8103
8205
8092
8183
8117
8156
8152
8128
8177
8105
8193
8101
8165
8125
8146
8172
8092
8212
8055
8248
8058
8248
8082
8227
8115
8208
8178
8168
8173
8123
8177
8147
8192
8182
8136
8200
8096
8229
8080
8226
8086
8206
8114
8171
8169
8130
8206
8090
8230
8071
8229
8091
8197
8122
8159
8153
8129
8169
8121
8163
8139
8139
8174
8110
8224
8082
8271
8067
8252
8063
8212
8095
8184
8145
8131
8174
8112
8198
8100
8182
8120
8148
8151
8121
8176
8105
8205
8106
8196
8128
8161
8168
8100
8208
8069
8250
8055
8254
8076
8228
8100
8181
8135
8145
8160
8132
8178
8133
8163
8156
8129
8204
8095
8234
8073
8243
8077
8217
8108
8183
8154
8134
8191
8094
8223
8080
8224
8093
8200
8127
8159
8146
8131
8174
8112
8175
8137
8162
8185
8124
8225
8089
8260
8064
8258
8072
8260
8105
8200
8139
8155
8171
8116
8189
8106
8171
8131
8152
8152
8110
8172
8088
8198
8069
8169
8078
8138
8133
8089
8174
8067
8215
8056
8267
8092
8254
8113
8210
8166
8205
8218
8163
8191
8141
8170
8179
8136
8204
8094
8235
8060
8221
8053
8212
8080
8187
8135
8147
8184
8115
8207
8090
8205
8093
8182
8120
8146
8152
8124
8183
8119
8191
8129
8168
8168
8118
8200
8073
8230
8047
8246
8051
8230
8081
8210
8129
8165
8159
8114
8163
8111
8171
8135
8151
8152
8112
8182
8081
8202
8070
8199
8098
8177
8149
8146
8194
8096
8217
8069
8240
8069
8210
8088
8187
8128
8140
8150
8125
8176
8136
8164
8158
8136
8193
8093
8250
8079
8264
8069
8242
8086
8182
8082
8128
8155
8118
8215
8117
8237
8118
8202
8127
8143
8155
8123
8181
8110
8192
8124
8178
8160
8143
8203
8098
8242
8066
8265
8061
8252
8082
8216
8115
8167
8153
8136
8180
8117
8175
8132
8152
8171
8122
8207
8102
8238
8082
8222
8099
8197
8138
8158
8184
8110
8220
8088
8245
8080
8234
8097
8199
8138
8156
8165
8131
8171
8126
8174
8155
8145
8195
8098
8227
8073
8264
8063
8253
8088
8221
8112
8175
8153
8113
8180
8102
8191
8106
8178
8133
8144
8165
8112
8186
8105
8204
8117
8189
8145
8154
8193
8096
8219
8063
8241
8050
8238
8069
8207
8107
8168
8143
8131
8162
8120
8166
8135
8177
8204
8144
8222
8088
8232
8062
8224
8084
8202
8107
8165
8169
8130
8209
8091
8222
8084
8223
8104
8179
8127
8146
8159
8121
8166
8106
8169
8135
8152
8192
8115
8238
8079
8262
8066
8257
8069
8225
8101
8180
8146
8150
8177
8112
8193
8113
8173
8131
8145
8159
8113
8190
8083
8202
8092
8190
8123
8154
8176
8111
8214
8080
8251
8060
8241
8063
8204
8096
8158
8135
8143
8171
8130
8171
8134
8144
8154
8097
8178
8062
8209
8042
8213
8049
8197
8086
8177
8160
8152
8202
8117
8240
8129
8260
8126
8198
8138
8153
8173
8116
8164
8105
8182
8143
8167
8194
8127
8235
8093
8267
8067
8263
8072
8232
8092
8192
8127
8126
8125
8080
8163
8124
8184
8156
8154
8174
8123
8208
8089
8219
8093
8209
8121
8180
8161
8129
8209
8078
8223
8064
8244
8081
8219
8100
8162
8134
8143
8170
8128
8172
8126
8145
8156
8116
8201
8082
8240
8073
8261
8074
8236
8098
8191
8137
8150
8182
8110
8210
8093
8202
8108
8176
8128
8143
8163
8118
8199
8112
8193
8129
8161
8164
8120
8203
8085
8243
8063
8261
8066
8250
8095
8202
8129
8157
8166
8123
8189
8117
8170
8146
8144
8167
8108
8221
8093
8238
8082
8216
8101
8175
8154
8156
8206
8103
8225
8077
8241
8081
8214
8110
8171
8132
8138
8166
8129
8176
8132
8170
8163
8121
8202
8089
8252
8069
8262
8063
8243
8081
8199
8117
8160
8180
8127
8206
8114
8201
8109
8171
8133
8131
8164
8106
8200
8101
8196
8114
8169
8149
8136
8201
8088
8235
8071
8259
8063
8241
8084
8204
8120
8173
8167
8131
8170
8125
8164
8138
8139
8164
8095
8210
8083
8247
8075
8225
8091
8202
8143
8156
8183
8111
8219
8086
8240
8086
8221
8104
8172
8139
8141
8164
8121
8192
8131
8172
8159
8126
8190
8087
8234
8059
8254
8050
8233
8069
8214
8112
8172
8170
8128
8196
8119
8195
8116
8176
8151
8142
8179
8114
8203
8092
8202
8098
8175
8144
8147
8185
8098
8229
8077
8248
8066
8244
8077
8208
8114
8173
8150
8129
8166
8123
8168
8141
8148
8182
8111
8220
8085
8246
8059
8222
8072
8195
8109
8160
8159
8109
8198
8089
8210
8089
8225
8124
8189
8159
8139
8166
8108
8176
8118
8174
8134
8131
8194
8103
8225
8067
8248
8047
8249
8075
8222
8117
8190
8164
8144
8183
8118
8168
8113
8153
8124
8100
8149
8094
8228
8094
8226
8104
8206
8141
8159
8183
8115
8222
8073
8246
8073
8248
8086
8210
8114
8160
8150
8142
8177
8132
8177
8141
8142
8172
8108
8211
8067
8239
8058
8234
8068
8213
8099
8172
8145
8123
8188
8090
8205
8107
8220
8104
8137
8125
8124
8175
8119
8199
8128
8200
8155
8174
8218
8162
8287
8125
8300
8082
8266
8066
8212
8096
8189
8159
8164
8178
8119
8168
8112
8142
8135
8121
8170
8088
8219
8078
8221
8080
8205
8115
8164
8161
8108
8199
8080
8230
8078
8247
8090
8197
8102
8159
8145
8128
8156
8113
8157
8131
8151
8181
8114
8215
8076
8252
8062
8248
8053
8215
8086
8182
8143
8145
8182
8113
8201
8109
8190
8122
8167
8139
8121
8163
8097
8186
8098
8191
8129
8166
8180
8120
8222
8082
8262
8085
8277
8076
8219
8082
8187
8134
8167
8185
8138
8185
8141
8165
8155
8131
8196
8095
8231
8080
8246
8079
8214
8113
8190
8169
8153
8207
8112
8231
8086
8237
8094
8208
8122
8167
8159
8138
8181
8138
8198
8138
8165
8171
8115
8208
8081
8251
8060
8258
8068
8238
8093
8205
8142
8157
8166
8109
8192
8118
8204
8125
8160
8156
8130
8181
8100
8208
8098
8204
8120
8166
8147
8108
8184
8074
8242
8079
8266
8077
8243
8088
8190
8117
8152
8149
8125
8169
8125
8160
8147
8125
8189
8093
8215
8059
8232
8061
8221
8080
8186
8126
8133
8166
8095
8209
8086
8216
8091
8204
8127
8153
8148
8125
8177
8123
8192
8124
8163
8159
8117
8195
8072
8223
8058
8261
8057
8250
8090
8226
8131
8181
8181
8142
8190
8120
8180
8129
8159
8156
8107
8150
8071
8202
8088
8211
8115
8189
8150
8143
8198
8097
8230
8070
8242
8066
8228
8086
8199
8130
8155
8160
8131
8175
8129
8160
8152
8135
8189
8103
8240
8075
8250
8059
8240
8086
8197
8118
8166
8178
8115
8196
8104
8216
8094
8191
8126
8154
8150
8132
8183
8114
8189
8122
8176
8160
8132
8193
8088
8235
8079
8265
8067
8251
8073
8207
8112
8183
8157
8136
8185
8124
8177
8131
8149
8139
8097
8170
8089
8231
8087
8228
8106
8205
8142
8166
8181
8111
8211
8077
8229
8079
8237
8095
8204
8132
8159
8161
8138
8178
8136
8185
8149
8135
8193
8107
8218
8074
8260
8061
8248
8070
8217
8104
8173
8158
8143
8197
8110
8205
8097
8171
8112
8148
8155
8130
8218
8132
8231
8124
8181
8124
8148
8180
8095
8215
8065
8241
8054
8239
8066
8210
8101
8186
8142
8136
8156
8118
8171
8126
8146
8147
8103
8176
8087
8253
8107
8272
8096
8208
8112
8177
8170
8131
8213
8094
8240
8091
8244
8101
8205
8134
8161
8172
8139
8180
8123
8177
8146
8164
8194
8111
8221
8071
8247
8051
8251
8063
8225
8104
8192
8150
8153
8181
8121
8202
8119
8191
8136
8148
8145
8109
8179
8087
8200
8095
8197
8127
8163
8170
8112
8201
8064
8227
8059
8248
8072
8224
8102
8189
8142
8136
8138
8102
8156
8117
8139
8150
8111
8189
8085
8234
8064
8242
8082
8248
8149
8237
8202
8183
8207
8105
8212
8077
8200
8088
8177
8124
8151
8156
8139
8209
8138
8199
8133
8153
8156
8093
8200
8073
8251
8059
8257
8061
8230
8081
8188
8119
8163
8185
8139
8196
8122
8178
8137
8159
8170
8123
8224
8105
8220
8091
8176
8073
8153
8159
8138
8212
8092
8238
8072
8242
8070
8216
8095
8192
8146
8162
8172
8127
8176
8131
8154
8154
8124
8197
8086
8239
8070
8254
8075
8244
8098
8204
8152
8167
8185
8115
8205
8087
8198
8086
8170
8128
8158
8171
8127
8182
8111
8194
8126
8172
8163
8121
8201
8083
8237
8055
8262
8057
8231
8074
8190
8109
8160
8148
8124
8184
8118
8167
8121
8126
8146
8109
8224
8121
8271
8110
8230
8118
8216
8169
8161
8191
8089
8218
8081
8252
8090
8237
8100
8191
8135
8150
8159
8127
8168
8126
8162
8147
8122
8178
8074
8219
8059
8250
8054
8229
8078
8196
8107
8157
8164
8111
8189
8094
8198
8104
8175
8134
8152
8169
8118
8180
8089
8187
8110
8177
8155
8143
8198
8089
8231
8071
8260
8066
8248
8078
8211
8115
8166
8146
8130
8169
8126
8167
8137
8141
8167
8116
8213
8097
8245
8081
8236
8096
8197
8133
8156
8172
8104
8209
8084
8222
8068
8225
8095
8195
8139
8149
8162
8125
8176
8124
8178
8160
8140
8193
8094
8228
8064
8254
8057
8256
8070
8218
8107
8175
8168
8149
8189
8118
8196
8109
8171
8140
8150
8182
8132
8220
8095
8208
8104
8189
8142
8143
8183
8134
8239
8077
8244
8064
8258
8094
8231
8124
8198
8176
8160
8188
8134
8178
8144
8151
8162
8105
8199
8071
8235
8061
8228
8072
8215
8110
8168
8160
8117
8194
8091
8217
8084
8221
8105
8180
8133
8153
8170
8118
8172
8119
8183
8144
8152
8184
8095
8217
8074
8261
8062
8265
8079
8232
8110
8194
8151
8136
8166
8104
8168
8107
8146
8099
8110
8157
8109
8218
8100
8226
8100
8203
8122
8154
8164
8106
8205
8088
8245
8080
8256
8082
8217
8109
8166
8144
8143
8165
8127
8163
8139
8147
8174
8111
8206
8083
8241
8055
8228
8058
8219
8091
8175
8132
8116
8178
8104
8219
8107
8231
8131
8221
8199
8204
8210
8132
8202
8117
8192
8137
8165
8184
8127
8225
8081
8236
8046
8244
8055
8217
8080
8187
8122
8159
8172
8131
8195
8137
8175
8147
8144
8170
8110
8207
8075
8217
8080
8211
8105
8180
8154
8136
8195
8085
8216
8068
8248
8095
8239
8127
8196
8144
8142
8166
8117
8164
8124
8150
8165
8118
8203
8085
8244
8064
8251
8070
8238
8094
8205
8140
8157
8180
8115
8199
8097
8186
8110
8166
8137
8133
8172
8119
8202
8101
8191
8113
8169
8156
8118
8217
8095
8242
8057
8243
8046
8219
8082
8199
8116
8133
8139
8128
8175
8139
8176
8146
8135
8182
8114
8254
8116
8272
8079
8209
8082
8177
8128
8138
8180
8103
8208
8079
8236
8099
8225
8114
8168
8144
8145
8180
8138
8198
8136
8174
8170
8121
8196
8080
8251
8066
8261
8062
8241
8083
8214
8121
8176
8166
8124
8191
8110
8182
8117
8176
8158
8154
8201
8121
8211
8091
8194
8100
8175
8146
8138
8187
8104
8240
8076
8257
8066
8244
8079
8198
8116
8150
8147
8129
8153
8086
8117
8113
8125
8185
8114
8249
8108
8262
8072
8233
8104
8237
8163
8193
8177
8125
8216
8103
8224
8097
8224
8121
8174
8152
8148
8181
8127
8202
8137
8177
8154
8130
8195
8100
8239
8070
8255
8045
8245
8072
8217
8103
8174
8153
8128
8182
8117
8179
8116
8157
8139
8130
8175
8107
8212
8088
8201
8089
8189
8122
8156
8177
8101
8216
8065
8224
8059
8233
8071
8201
8119
8177
8146
8125
8160
8119
8170
8135
8139
8181
8107
8216
8082
8254
8068
8254
8084
8218
8112
8176
8159
8126
8196
8102
8221
8093
8190
8106
8158
8141
8128
8172
8116
8198
8118
8183
8148
8146
8189
8101
8230
8070
8259
8061
8239
8057
8215
8109
8196
8152
8143
8179
8131
8180
8122
8152
8141
8128
8192
8101
8225
8080
8219
8090
8209
8115
8170
8166
8127
8211
8087
8225
8061
8209
8062
8186
8094
8147
8134
8124
8169
8130
8195
8159
8192
8233
8169
8275
8109
8257
8054
8248
8067
8230
8100
8192
8156
8150
8184
8117
8221
8115
8202
8117
8149
8129
8127
8173
8111
8202
8107
8191
8132
8160
8177
8112
8224
8084
8259
8064
8256
8068
8231
8098
8197
8134
8146
8172
8124
8175
8135
8169
8151
8134
8202
8103
8235
8081
8243
8077
8220
8112
8186
8162
8144
8194
8094
8218
8080
8235
8096
8204
8121
8168
8157
8133
8165
8111
8164
8128
8134
8127
8087
8194
8077
8255
8062
8272
8064
8232
8091
8200
8142
8165
8185
8134
8211
8118
8189
8128
8166
8154
8124
8177
8101
8214
8104
8203
8115
8163
8155
8132
8206
8088
8237
8067
8256
8077
8244
8099
8198
8124
8151
8150
8128
8175
8133
8166
8151
8131
8191
8092
8214
8065
8237
8071
8233
8118
8220
8157
8163
8200
8123
8229
8102
8241
8113
8202
8120
8159
8145
8121
8169
8116
8183
8114
8158
8153
8096
8181
8064
8223
8052
8257
8057
8239
8078
8199
8121
8178
8193
8144
8181
8114
8190
8146
8183
8172
8136
8206
8107
8228
8082
8197
8094
8166
8133
8114
8174
8086
8218
8061
8247
8069
8241
8100
8218
8150
8162
8155
8127
8172
8135
8174
8162
8147
8210
8109
8239
8073
8253
8061
8219
8068
8196
8118
8168
8180
8122
8199
8094
8209
8095
8178
8116
8155
8143
8120
8182
8123
8198
8123
8185
8162
8142
8193
8084
8225
8063
8265
8059
8246
8085
8223
8120
8175
8163
8138
8187
8124
8177
8140
8167
8168
8138
8212
8110
8232
8085
8215
8091
8186
8127
8139
8167
8104
8228
8097
8261
8095
8238
8092
8190
8120
8149
8157
8127
8166
8133
8194
8174
8143
8189
8108
8238
8084
8265
8067
8257
8083
8223
8121
8177
8153
8102
8167
8082
8185
8088
8174
8127
8163
8164
8135
8189
8109
8208
8119
8175
8127
8128
8179
8097
8228
8068
8252
8055
8250
8075
8218
8103
8177
8139
8136
8169
8124
8175
8136
8156
8161
8122
8202
8089
8228
8075
8231
8090
8199
8119
8168
8173
8112
8192
8067
8212
8075
8224
8096
8194
8125
8158
8169
8142
8180
8124
8179
8156
8178
8209
8114
8224
8078
8272
8077
8270
8088
8232
8112
8191
8159
8159
8188
8102
8187
8101
8172
8120
8139
8152
8114
8179
8093
8197
8097
8192
8141
8166
8183
8113
8220
8084
8269
8069
8260
8081
8221
8105
8175
8127
8130
8151
8113
8159
8124
8148
8164
8129
8214
8101
8236
8066
8231
8071
8211
8105
8187
8164
8142
8195
8093
8213
8084
8225
8102
8180
8127
8152
8166
8127
8178
8127
8188
8139
8164
8185
8107
8200
8053
8217
8044
8242
8053
8219
8090
8213
8161
8164
8171
8117
8198
8124
8173
8134
8145
8160
8119
8205
8107
8240
8110
8209
8119
8172
8168
8138
8215
8094
8244
8079
8252
8070
8218
8098
8189
8145
8147
8166
8130
8171
8133
8157
8160
8130
8203
8083
8230
8066
8247
8067
8225
8088
8192
8146
8148
8182
8116
8230
8120
8240
8118
8198
8142
8168
8197
8147
8204
8117
8188
8130
8186
8194
8133
8220
8069
8218
8040
8231
8039
8218
8080
8201
8126
8160
8167
8120
8164
8102
8159
8127
8146
8162
8102
8206
8094
8237
8088
8211
8111
8188
8154
8139
8192
8101
8227
8074
8241
8075
8228
8102
8186
8139
8145
8162
8128
8193
8141
8180
8176
8143
8208
8083
8228
8052
8248
8066
8244
8103
8220
8147
8171
8172
8095
8177
8091
8200
8113
8174
8104
8119
8159
8120
8199
8123
8213
8130
8181
8161
8137
8198
8085
8238
8067
8268
8061
8239
8081
8206
8114
8169
8150
8131
8162
8110
8158
8126
8143
8161
8102
8201
8074
8230
8087
8238
8121
8234
8190
8206
8217
8128
8219
8080
8226
8083
8226
8102
8193
8147
8149
8161
8119
8179
8136
8173
8161
8129
8197
8102
8235
8077
8254
8040
8219
8062
8199
8106
8170
8168
8149
8196
8099
8181
8124
8188
8159
8167
8194
8122
8208
8094
8193
8100
8178
8137
8139
8179
8089
8222
8065
8247
8059
8250
8083
8216
8115
8173
8144
8131
8166
8128
8176
8142
8143
8167
8111
8200
8062
8227
8066
8229
8086
8216
8130
8171
8181
8141
8211
8101
8231
8089
8195
8106
8177
8141
8149
8180
8139
8203
8137
8188
8159
8130
8177
8083
8214
8060
8252
8050
8249
8071
8223
8103
8182
8164
8162
8201
8129
8191
8106
8150
8134
8151
8188
8134
8227
8107
8219
8099
8204
8152
8176
8190
8116
8215
8074
8250
8072
8247
8084
8213
8117
8183
8144
8135
8172
8141
8182
8147
8152
8175
8106
8194
8078
8239
8058
8228
8068
8214
8101
8184
8158
8136
8187
8090
8207
8091
8207
8110
8170
8135
8143
8171
8119
8196
8114
8175
8124
8143
8177
8107
8229
8075
8254
8055
8257
8069
8226
8098
8192
8138
8159
8178
8121
8192
8130
8177
8151
8144
8175
8107
8221
8082
8216
8085
8209
8118
8168
8160
8114
8202
8073
8221
8065
8245
8094
8222
8117
8197
8164
8156
8180
8133
8166
8129
8143
8166
8112
8205
8079
8241
8054
8243
8056
8221
8087
8194
8174
8192
8209
8114
8186
8084
8188
8107
8193
8145
8130
8167
8109
8199
8113
8202
8136
8167
8181
8123
8222
8082
8265
8078
8277
8082
8247
8087
8180
8118
8144
8168
8128
8194
8141
8174
8153
8142
8186
8106
8203
8061
8216
8083
8200
8074
8157
8137
8135
8202
8103
8228
8089
8244
8094
8218
8118
8190
8150
8158
8180
8135
8199
8140
8172
8167
8105
8191
8085
8265
8089
8272
8059
8227
8083
8206
8147
8174
8186
8125
8197
8100
8184
8124
8176
8151
8137
8179
8117
8213
8108
8207
8125
8185
8169
8127
8188
8072
8215
8048
8247
8064
8231
8093
8216
8140
8181
8173
8135
8179
8150
8213
8189
8162
8191
8102
8213
8072
8239
8072
8218
8084
8187
8131
8159
8180
8104
8210
8084
8217
8074
8198
8103
8159
8140
8142
8175
8130
8190
8137
8174
8162
8123
8191
8082
8230
8062
8261
8053
8235
8078
8203
8113
8170
8157
8123
8180
8098
8163
8109
8165
8159
8137
8197
8099
8199
8086
8197
8095
8176
8154
8164
8211
8122
8257
8095
8269
8077
8242
8088
8210
8121
8173
8159
8138
8171
8125
8169
8147
8150
8194
8103
8209
8072
8251
8087
8264
8098
8211
8113
8171
8163
8118
8201
8106
8227
8102
8205
8116
8161
8146
8127
8168
8099
8165
8101
8168
8146
8143
8193
8088
8225
8051
8238
8056
8272
8086
8225
8095
8174
8154
8141
8182
8125
8197
8136
8173
8158
8138
8206
8112
8227
8087
8223
8102
8197
8139
8164
8181
8107
8208
8080
8235
8073
8247
8088
8203
8121
8175
8160
8134
8157
8116
8166
8146
8146
8186
8112
8220
8078
8251
8057
8232
8070
8219
8107
8171
8151
8141
8186
8106
8207
8098
8185
8117
8160
8147
8123
8179
8116
8200
8109
8181
8137
8166
8189
8112
8220
8067
8249
8046
8243
8033
8180
8065
8165
8132
8144
8176
8136
8204
8148
8179
8153
8129
8199
8107
8242
8082
8222
8074
8200
8116
8180
8178
8138
8208
8093
8234
8094
8241
8095
8215
8126
8165
8150
8135
8177
8126
8170
8139
8146
8173
8116
8217
8081
8262
8069
8257
8072
8235
8105
8204
8158
8166
8188
8120
8201
8109
8191
8131
8161
8158
8134
8187
8109
8210
8105
8190
8119
8165
8174
8119
8209
8079
8237
8056
8249
8064
8220
8095
8201
8141
8152
8158
8129
8170
8133
8164
8146
8123
8184
8095
8233
8076
8248
8085
8235
8116
8194
8157
8154
8196
8097
8211
8080
8214
8079
8181
8116
8156
8141
8127
8177
8134
8214
8174
8193
8174
8107
8205
8083
8253
8066
8266
8069
8238
8087
8197
8120
8171
8174
8124
8194
8116
8183
8132
8161
8152
8126
8200
8105
8211
8101
8211
8122
8190
8165
8151
8204
8094
8234
8055
8240
8067
8235
8098
8193
8127
8152
8158
8122
8161
8125
8151
8142
8126
8185
8092
8237
8077
8258
8075
8237
8097
8200
8134
8159
8180
8106
8207
8092
8214
8105
8204
8119
8153
8132
8106
8161
8099
8182
8113
8168
8145
8105
8180
8063
8213
8052
8259
8054
8224
8071
8223
8158
8212
8203
8156
8196
8118
8170
8122
8155
8155
8122
8176
8072
8199
8073
8210
8100
8195
8139
8143
8173
8098
8227
8089
8252
8087
8246
8093
8181
8113
8158
8176
8158
8225
8156
8188
8158
8143
8188
8089
8227
8074
8257
8061
8236
8077
8213
8110
8170
8162
8121
8197
8096
8200
8102
8189
8124
8158
8164
8134
8188
8112
8203
8118
8178
8157
8148
8191
8099
8234
8071
8259
8066
8260
8083
8230
8125
8189
8167
8150
8190
8129
8182
8138
8161
8171
8129
8204
8093
8235
8088
8234
8100
8213
8139
8170
8174
8115
8202
8080
8220
8065
8221
8094
8203
8134
8152
8157
8129
8169
8113
8164
8139
8140
8185
8102
8220
8075
8259
8066
8256
8078
8234
8116
8195
8157
8150
8193
8116
8200
8101
8175
8125
8154
8164
8131
8187
8100
8197
8106
8202
8158
8168
8184
8115
8227
8085
8255
8058
8250
8070
8214
8103
8183
8135
8134
8153
8119
8174
8138
8154
8165
8128
8204
8090
8232
8068
8235
8080
8221
8115
8194
8169
8138
8195
8085
8215
8084
8210
8098
8192
8129
8152
8158
8126
8180
8126
8189
8145
8163
8179
8111
8222
8084
8265
8068
8269
8083
8239
8101
8193
8126
8135
8169
8107
8181
8099
8161
8121
8145
8159
8113
8188
8092
8220
8096
8202
8118
8185
8190
8160
8221
8079
8223
8058
8243
8073
8224
8109
8209
8150
8163
8188
8146
8169
8122
8144
8146
8118
8199
8095
8247
8078
8251
8086
8236
8101
8192
8146
8150
8187
8104
8209
8090
8205
8101
8182
8138
8165
8172
8131
8188
8107
8174
8119
8169
8177
8126
8222
8096
8257
8059
8248
8050
8229
8077
8205
8129
8170
8169
8122
8188
8115
8175
8138
8153
8189
8123
8204
8078
8218
8083
8212
8104
8183
8152
8149
8193
8091
8227
8077
8236
8068
8210
8092
8184
8129
8136
8144
8116
8170
8127
8145
8140
8109
8186
8088
8221
8045
8241
8071
8272
8123
8243
8171
8192
8192
8147
8212
8116
8201
8102
8170
8130
8156
8173
8128
8207
8115
8206
8136
8192
8166
8127
8188
8077
8224
8056
8255
8057
8239
8078
8212
8119
8174
8169
8139
8192
8133
8169
8137
8136
8151
8094
8178
8063
8202
8050
8196
8061
8174
8116
8156
8188
8110
8215
8090
8261
8120
8273
8144
8218
8149
8157
8165
8130
8201
8139
8177
8166
8143
8206
8109
8239
8081
8263
8056
8253
8081
8223
8116
8178
8160
8123
8195
8115
8200
8116
8173
8135
8140
8162
8109
8187
8104
8217
8120
8189
8141
8139
8179
8099
8218
8066
8249
8069
8254
8087
8217
8112
8171
8141
8137
8169
8124
8173
8146
8157
8188
8133
8225
8097
8252
8080
8239
8083
8210
8108
8165
8169
8117
8201
8085
8220
8077
8194
8099
8176
8137
8154
8172
8133
8180
8123
8178
8135
8126
8175
8100
8234
8079
8261
8057
8268
8070
8220
8093
8174
8126
8119
8172
8113
8193
8131
8186
8156
8153
8170
8107
8192
8077
8194
8085
8195
8135
8167
8188
8116
8225
8079
8240
8062
8243
8081
8210
8107
8170
8138
8137
8162
8123
8178
8151
8158
8182
8128
8216
8094
8258
8074
8259
8079
8218
8104
8174
8149
8123
8196
8111
8213
8095
8202
8097
8158
8124
8135
8166
8119
8178
8109
8182
8137
8159
8185
8109
8215
8062
8248
8047
8244
8059
8227
8103
8196
8155
8157
8181
8137
8213
8155
8192
8159
8157
8210
8137
8252
8114
8252
8105
8215
8109
8166
8158
8098
8181
8086
8241
8089
8256
8089
8216
8115
8169
8132
8129
8156
8122
8178
8147
8174
8181
8134
8220
8103
8256
8067
8250
8068
8228
8092
8180
8140
8146
8177
8108
8200
8091
8181
8109
8172
8141
8136
8164
8106
8193
8100
8185
8117
8158
8162
8112
8209
8080
8242
8054
8245
8062
8251
8096
8195
8117
8171
8191
8149
8202
8142
8171
8154
8139
8176
8111
8238
8100
8258
8092
8222
8109
8189
8155
8141
8187
8089
8211
8074
8233
8078
8205
8106
8183
8152
8142
8173
8135
8175
8130
8165
8169
8128
8204
8083
8250
8068
8256
8058
8234
8092
8213
8122
8166
8180
8127
8208
8117
8207
8130
8185
8144
8140
8172
8106
8208
8113
8217
8141
8193
8164
8123
8169
8052
8191
8023
8210
8041
8227
8095
8220
8145
8194
8204
8199
8250
8176
8201
8161
8134
8156
8068
8166
8033
8203
8048
8205
8066
8187
8144
8167
8180
8103
8204
8079
8218
8089
8224
8127
8196
8157
8147
8176
8114
8169
8123
8172
8149
8125
8207
8109
8263
8082
8272
8060
8246
8069
8207
8113
8179
8164
8133
8190
8116
8182
8119
8167
8149
8139
8173
8098
8207
8092
8212
8108
8203
8167
8171
8203
8109
8225
8075
8260
8072
8242
8091
8203
8122
8181
8154
8132
8166
8119
8167
8144
8153
8195
8117
8224
8088
8256
8076
8253
8080
8218
8124
8189
8161
8100
8179
8086
8214
8097
8194
8122
8190
8168
8154
8182
8122
8192
8114
8184
8150
8135
8174
8087
8231
8072
8254
8053
8249
8067
8219
8102
8189
8164
8161
8189
8128
8175
8109
8152
8134
8122
8173
8098
8222
8085
8220
8099
8201
8146
8196
8209
8145
8208
8063
8213
8069
8245
8093
8207
8118
8158
8140
8125
8158
8115
8165
8130
8133
8167
8102
8210
8066
8243
8062
8249
8064
8217
8101
8180
8146
8153
8208
8116
8195
8102
8222
8147
8206
8196
8174
8233
8138
8221
8119
8188
8124
8152
8167
8095
8202
8061
8248
8052
8252
8057
8211
8103
8193
8134
8148
8182
8134
8180
8133
8169
8148
8129
8189
8095
8218
8072
8221
8081
8216
8118
8189
8173
8150
8217
8112
8235
8088
8228
8077
8198
8112
8143
8129
8119
8157
8106
8153
8119
8132
8163
8120
8216
8085
8246
8067
8259
8063
8236
8100
8207
8154
8173
8187
8119
8201
8113
8201
8128
8172
8164
8132
8184
8101
8201
8106
8207
8127
8174
8172
8136
8220
8090
8257
8069
8254
8067
8232
8103
8206
8143
8154
8182
8140
8170
8129
8159
8148
8142
8205
8110
8257
8110
8273
8093
8242
8100
8191
8139
8126
8174
8090
8216
8087
8222
8086
8184
8116
8170
8169
8153
8183
8118
8161
8112
8135
8155
8124
8225
8102
8270
8064
8247
8047
8216
8062
8189
8111
8135
8155
8104
8141
8071
8155
8133
8209
8247
8204
8250
8128
8240
8107
8212
8123
8192
8168
8166
8216
8096
8238
8069
8244
8059
8216
8079
8192
8122
8149
8154
8136
8172
8127
8159
8152
8137
8196
8087
8213
8057
8243
8065
8238
8088
8208
8139
8162
8180
8120
8209
8098
8216
8094
8200
8126
8157
8152
8130
8167
8107
8187
8117
8172
8155
8124
8197
8085
8238
8067
8272
8067
8259
8080
8201
8108
8170
8159
8137
8187
8119
8170
8122
8143
8141
8110
8201
8108
8246
8100
8220
8099
8204
8160
8167
8188
8104
8225
8091
8254
8090
8257
8103
8212
8138
8167
8170
8150
8206
8145
8184
8147
8133
8187
8101
8227
8066
8249
8064
8237
8065
8206
8114
8174
8159
8121
8194
8101
8203
8104
8181
8123
8154
8148
8124
8181
8099
8177
8100
8177
8142
8139
8180
8085
8214
8061
8253
8061
8259
8088
8229
8117
8184
8141
8142
8188
8131
8172
8132
8163
8181
8133
8208
8101
8244
8093
8231
8087
8196
8109
8166
8177
8118
8210
8092
8237
8089
8230
8087
8172
8115
8137
8144
8125
8167
8116
8162
8144
8142
8187
8112
8221
8073
8262
8052
8246
8063
8222
8101
8194
8154
8159
8194
8115
8205
8110
8182
8137
8157
8162
8127
8190
8086
8170
8088
8187
8151
8168
8188
8118
8215
8064
8232
8049
8242
8066
8220
8096
8170
8129
8138
8156
8117
8169
8133
8157
8164
8127
8208
8109
8261
8104
8276
8112
8255
8146
8205
8171
8152
8200
8099
8225
8093
8238
8102
8198
8130
8158
8164
8141
8204
8129
8195
8151
8167
8172
8100
8212
8080
8255
8059
8259
8058
8230
8095
8204
8150
8162
8168
8101
8143
8069
8134
8106
8121
8133
8098
8175
8086
8210
8096
8209
8145
8203
8212
8174
8227
8096
8242
8087
8268
8085
8247
8113
8188
8131
8150
8168
8132
8179
8142
8165
8151
8107
8196
8099
8248
8060
8221
8054
8235
8108
8212
8154
8169
8209
8153
8243
8119
8236
8103
8168
8107
8128
8127
8100
8164
8101
8162
8113
8172
8184
8156
8226
8088
8224
8050
8254
8069
8254
8103
8215
8132
8172
8147
8116
8156
8101
8157
8129
8146
8173
8135
8216
8108
8250
8108
8242
8129
8203
8164
8149
8186
8093
8227
8072
8226
8056
8203
8085
8195
8134
8146
8155
8126
8163
8119
8156
8151
8125
8206
8103
8232
8074
8267
8074
8246
8089
8215
8141
8177
8176
8132
8207
8112
8214
8112
8177
8129
8152
8166
8131
8209
8121
8208
8123
8177
8154
8136
8200
8113
8246
8069
8258
8049
8219
8073
8209
8116
8175
8164
8132
8161
8109
8155
8128
8148
8173
8120
8205
8079
8233
8076
8228
8087
8203
8131
8152
8157
8080
8192
8079
8228
8085
8230
8093
8191
8122
8133
8155
8136
8198
8141
8188
8163
8161
8200
8112
8237
8068
8248
8050
8249
8079
8217
8111
8181
8165
8149
8187
8112
8210
8120
8175
8131
8148
8158
8108
8176
8095
8202
8104
8185
8147
8162
8191
8114
8244
8104
8282
8087
8261
8077
8213
8101
8165
8132
8131
8173
8126
8179
8155
8166
8196
8135
8222
8095
8250
8078
8247
8082
8213
8112
8171
8155
8115
8196
8089
8217
8090
8226
8106
8198
8146
8162
8178
8129
8179
8111
8158
8128
8131
8174
8098
8218
8073
8260
8060
8261
8069
8233
8106
8192
8152
8152
8182
8122
8194
8120
8171
8135
8137
8168
8119
8188
8095
8210
8093
8202
8121
8163
8161
8102
8208
8087
8263
8094
8275
8097
8219
8092
8157
8134
8140
8165
8125
8170
8125
8141
8158
8119
8205
8088
8249
8071
8254
8071
8222
8094
8182
8147
8147
8193
8123
8213
8085
8187
8087
8151
8117
8139
8167
8123
8193
8119
8205
8142
8176
8180
8122
8232
8098
8257
8049
8246
8068
8245
8107
8197
8131
8161
8171
8129
8192
8126
8164
8132
8135
8170
8113
8225
8094
8227
8089
8223
8151
8221
8188
8145
8200
8089
8236
8086
8257
8090
8220
8113
8188
8155
8167
8194
8123
8164
8120
8140
8137
8103
8178
8059
8204
8046
8244
8056
8232
8090
8218
8161
8177
8196
8160
8235
8122
8208
8109
8177
8153
8162
8197
8130
8205
8106
8196
8136
8187
8168
8124
8202
8083
8239
8069
8259
8057
8225
8078
8197
8110
8149
8145
8119
8159
8120
8167
8150
8149
8194
8114
8214
8070
8219
8076
8223
8104
8202
8156
8165
8192
8091
8217
8080
8239
8086
8209
8095
8164
8130
8137
8172
8133
8199
8147
8200
8188
8144
8219
8111
8239
8057
8251
8052
8243
8076
8213
8128
8178
8165
8121
8190
8107
8194
8104
8155
8125
8131
8172
8109
8204
8095
8197
8103
8172
8142
8137
8186
8089
8221
8053
8248
8065
8248
8089
8207
8121
8168
8147
8127
8165
8112
8153
8127
8123
8151
8094
8200
8061
8228
8060
8218
8081
8202
8117
8161
8172
8113
8215
8094
8224
8092
8223
8119
8192
8169
8171
8209
8145
8209
8144
8187
8169
8157
8207
8116
8256
8085
8268
8062
8259
8077
8211
8099
8170
8151
8123
8172
8106
8168
8112
8172
8159
8150
8202
8119
8231
8102
8224
8108
8194
8144
8161
8183
8111
8223
8064
8233
8062
8235
8078
8201
8103
8166
8149
8146
8212
8165
8204
8161
8158
8203
8133
8232
8087
8251
8066
8259
8099
8241
8158
8215
8206
8172
8216
8106
8207
8095
8207
8118
8173
8141
8133
8162
8107
8193
8120
8190
8147
8129
8170
8088
8206
8055
8239
8045
8241
8053
8204
8083
8166
8112
8108
8130
8080
8141
8083
8126
8113
8106
8153
8096
8226
8100
8256
8117
8242
8172
8217
8214
8157
8232
8110
8263
8092
8261
8109
8250
8154
8224
8200
8154
8174
8135
8191
8142
8147
8179
8102
8197
8058
8227
8038
8215
8044
8207
8093
8191
8144
8138
8174
8103
8210
8101
8184
8105
8159
8135
8118
8159
8091
8174
8083
8170
8117
8143
8154
8108
8226
8061
8200
8027
8237
8077
8263
8138
8234
8185
8209
8220
8145
8172
8120
8155
8135
8117
8168
8086
8209
8078
8257
8111
8254
8161
8231
8212
8201
8257
8161
8284
8117
8256
8102
8217
8127
8197
8175
8158
8188
8130
8173
8126
8148
8169
8111
8193
8071
8221
8044
8237
8044
8215
8084
8192
8135
8132
8153
8104
8187
8106
8182
8116
8162
8147
8116
8156
8084
8192
8096
8185
8106
8168
8159
8132
8199
8074
8222
8051
8248
8063
8227
8094
8200
8122
8149
8154
8133
8172
8128
8164
8154
8132
8193
8107
8217
8069
8242
8071
8229
8087
8185
8142
8146
8176
8103
8207
8080
8214
8080
8164
8097
8155
8116
8138
8152
8107
8175
8072
8186
8078
8196
8126
8164
8173
8134
8222
8092
8260
8085
8261
8081
8243
8108
8178
8138
8147
8187
8137
8178
8138
8162
8175
8139
8228
8116
8267
8092
8269
8095
8250
8139
8206
8173
8164
8209
8115
8229
8110
8216
8101
8177
8121
8143
8151
8106
8169
8098
8169
8109
8120
8134
8090
8192
8053
8211
8029
8236
8049
8236
8108
8219
8169
8199
8216
8180
8249
8167
8254
8213
8217
8219
8142
8228
8105
8249
8111
8229
8113
8172
8145
8132
8204
8096
8248
8092
8261
8098
8249
8118
8194
8133
8146
8167
8141
8184
8134
8146
8148
8118
8193
8081
8222
8062
8246
8063
8234
8085
8192
8117
8145
8160
8094
8187
8085
8197
8098
8167
8123
8139
8160
8118
8198
8115
8203
8125
8169
8152
8107
8181
8061
8205
8036
8242
8061
8252
8087
8214
8123
8169
8168
8131
8177
8131
8184
8140
8140
8164
8114
8211
8092
8238
8086
8227
8110
8192
8141
8146
8180
8107
8233
8097
8261
8097
8229
8085
8149
8098
8109
8125
8100
8155
8122
8158
8153
8130
8190
8086
8231
8070
8265
8072
8255
8083
8212
8122
8182
8182
8132
8195
8109
8202
8117
8185
8153
8168
8204
8141
8208
8094
8189
8098
8173
8158
8175
8230
8130
8252
8074
8258
8058
8240
8073
8214
8128
8188
8168
8135
8161
8127
8173
8134
8135
8160
8103
8208
8082
8242
8085
8237
8089
8202
8131
8166
8170
8115
8209
8091
8229
8092
8228
8111
8199
8150
8156
8175
8130
8182
8132
8191
8175
8166
8211
8118
8237
8073
8260
8063
8258
8066
8217
8121
8200
8179
8166
8201
8128
8200
8118
8161
8132
8132
8161
8109
8187
8086
8192
8084
8180
8122
8158
8187
8108
8230
8078
8247
8065
8247
8088
8229
8132
8199
8161
8156
8195
8136
8174
8139
8155
8181
8121
8219
8084
8241
8071
8231
8074
8205
8097
8162
8148
8113
8189
8093
8216
8098
8228
8106
8170
8133
8131
8160
8111
8173
8109
8172
8135
8147
8176
8102
8219
8075
8263
8064
8262
8074
8221
8092
8186
8130
8140
8178
8123
8180
8119
8158
8132
8117
8141
8065
8167
8064
8195
8073
8193
8115
8176
8177
8142
8224
8088
8234
8066
8249
8087
8219
8121
8199
8178
8164
8199
8155
8207
8184
8189
8201
8139
8226
8093
8252
8077
8263
8078
8242
8108
8202
8154
8152
8188
8107
8195
8089
8197
8104
8165
8137
8133
8167
8122
8208
8119
8198
8125
8132
8147
8089
8188
8059
8234
8067
8273
8088
8264
8114
8221
8165
8179
8184
8133
8192
8130
8162
8137
8124
8161
8095
8220
8089
8252
8108
8235
8124
8189
8146
8128
8182
8083
8222
8070
8216
8076
8200
8091
8149
8112
8110
8136
8084
8133
8100
8139
8169
8123
8210
8098
8250
8062
8250
8061
8243
8099
8213
8162
8193
8207
8131
8209
8119
8200
8116
8169
8142
8126
8176
8117
8207
8114
8207
8122
8173
8154
8130
8204
8087
8238
8070
8264
8069
8244
8088
8198
8114
8138
8140
8122
8163
8115
8161
8147
8139
8189
8108
8217
8082
8246
8085
8233
8102
8190
8146
8154
8190
8107
8228
8099
8245
8090
8215
8122
8188
8154
8140
8171
8129
8194
8135
8171
8164
8136
8213
8103
8259
8077
8267
8070
8252
8085
8212
8108
8134
8125
8112
8180
8113
8197
8132
8173
8151
8130
8170
8099
8210
8097
8208
8112
8191
8156
8152
8200
8101
8235
8074
8255
8070
8241
8086
8207
8123
8171
8158
8137
8182
8138
8170
8147
8140
8193
8111
8230
8083
8256
8074
8242
8085
8189
8113
8165
8175
8116
8203
8094
8218
8095
8227
8125
8173
8156
8144
8181
8112
8164
8106
8161
8130
8123
8184
8089
8227
8058
8258
8053
8244
8075
8226
8119
8197
8175
8162
8188
8120
8177
8128
8194
8167
8155
8206
8114
8239
8094
8220
8095
8186
8132
8153
8181
8107
8221
8073
8230
8073
8237
8085
8197
8114
8153
8150
8136
8168
8126
8164
8143
8149
8183
8106
8219
8078
8253
8071
8263
8086
8232
8124
8183
8158
8123
8187
8095
8204
8092
8190
8124
8168
8156
8143
8179
8113
8203
8125
8199
8150
8149
8172
8088
8221
8069
8251
8050
8243
8061
8213
8099
8190
8136
8137
8181
8132
8204
8150
8167
8154
8136
8199
8105
8231
8082
8223
8093
8220
8136
8180
8175
8144
8224
8089
8223
8072
8227
8081
8191
8105
8150
8138
8125
8173
8123
8182
8140
8151
8172
8111
8218
8085
8256
8071
8272
8089
8244
8107
8195
8149
8160
8198
8116
8208
8118
8208
8130
8158
8140
8119
8176
8105
8201
8116
8211
8145
8179
8186
8126
8226
8085
8238
8061
8251
8061
8223
8096
8187
8136
8151
8160
8128
8181
8145
8172
8157
8140
8203
8092
8228
8081
8241
8078
8216
8106
8186
8149
8139
8192
8095
8219
8080
8219
8088
8199
8127
8172
8158
8136
8171
8120
8182
8134
8167
8175
8129
8221
8084
8242
8050
8235
8037
8214
8078
8197
8126
8154
8169
8120
8190
8107
8176
8124
8164
8161
8138
8203
8110
8226
8115
8224
8127
8178
8151
8134
8210
8111
8247
8081
8263
8066
8222
8092
8207
8136
8148
8149
8114
8163
8126
8164
8158
8139
8192
8089
8215
8057
8233
8063
8234
8101
8208
8143
8159
8178
8108
8216
8100
8215
8098
8224
8133
8169
8165
8137
8186
8113
8191
8121
8157
8152
8124
8201
8092
8232
8064
8265
8064
8254
8085
8213
8120
8173
8173
8136
8186
8121
8186
8134
8159
8153
8117
8177
8099
8239
8100
8234
8107
8195
8147
8150
8196
8107
8227
8083
8252
8081
8247
8097
8205
8132
8164
8186
8143
8189
8136
8166
8145
8133
8178
8094
8224
8070
8244
8061
8237
8084
8220
8134
8183
8178
8148
8208
8088
8184
8083
8167
8114
8146
8154
8133
8188
8118
8203
8119
8180
8159
8155
8204
8100
8232
8072
8260
8062
8240
8063
8205
8107
8177
8161
8146
8188
8125
8172
8132
8165
8174
8139
8210
8094
8230
8075
8217
8092
8203
8137
8168
8176
8116
8215
8088
8251
8092
8244
8112
8211
8129
8152
8143
8123
8172
8124
8166
8138
8138
8197
8115
8226
8066
8253
8055
8247
8066
8213
8091
8180
8160
8149
8198
8114
8201
8109
8170
8117
8146
8159
8128
8188
8096
8202
8107
8202
8140
8155
8180
8106
8222
8080
8253
8058
8256
8079
8229
8105
8182
8137
8138
8169
8136
8180
8148
8167
8182
8131
8197
8079
8208
8053
8217
8081
8220
8124
8190
8168
8148
8207
8108
8221
8078
8223
8104
8200
8130
8154
8153
8129
8180
8125
8186
8132
8141
8171
8103
8207
8075
8256
8060
8265
8075
8239
8104
8196
8145
8147
8171
8116
8199
8124
8195
8147
8173
8179
8138
8220
8102
8207
8082
8190
8123
8178
8178
8137
8215
8094
8233
8054
8233
8055
8209
8095
8181
8128
8140
8159
8123
8167
8135
8160
8153
8131
8203
8082
8220
8068
8256
8083
8241
8126
8231
8189
8192
8225
8128
8227
8101
8218
8106
8204
8148
8162
8173
8140
8207
8129
8197
8135
8166
8167
8116
8208
8074
8228
8048
8252
8058
8221
8076
8200
8124
8163
8163
8119
8173
8107
8156
8119
8139
8164
8113
8208
8098
8222
8097
8230
8147
8207
8177
8140
8187
8092
8233
8084
8251
8089
8257
8127
8224
8157
8163
8164
8118
8160
8126
8153
8127
8088
8171
8072
8223
8065
8253
8072
8243
8095
8209
8137
8153
8165
8111
8195
8098
8218
8113
8199
8139
8148
8161
8117
8184
8106
8200
8125
8175
8159
8128
8196
8083
8235
8058
8251
8056
8252
8093
8210
8128
8182
8175
8142
8171
8113
8160
8114
8122
8150
8103
8208
8098
8247
8083
8230
8091
8196
8138
8155
8183
8114
8220
8082
8231
8081
8226
8098
8189
8132
8153
8164
8121
8167
8121
8153
8143
8136
8201
8104
8256
8084
8277
8090
8302
8136
8263
8169
8208
8193
8163
8208
8119
8217
8125
8186
8137
8143
8152
8097
8177
8090
8195
8108
8175
8133
8137
8178
8082
8214
8057
8247
8056
8239
8072
8208
8093
8140
8141
8138
8175
8121
8168
8134
8139
8167
8104
8208
8074
8228
8064
8230
8080
8204
8139
8178
8190
8144
8234
8130
8260
8109
8251
8122
8198
8145
8161
8178
8127
8181
8134
8193
8174
8172
8214
8123
8233
8065
8254
8057
8252
8074
8223
8116
8185
8158
8136
8190
8124
8199
8116
8166
8125
8123
8141
8081
8165
8055
8165
8042
8120
8061
8084
8109
8045
8156
8021
8198
8040
8230
8067
8203
8098
8170
8147
8162
8227
8205
8278
8264
8277
8309
8247
8318
8161
8315
8121
8295
8115
8246
8132
8188
8168
8146
8210
8110
8224
8094
8205
8098
8177
8124
8120
8149
8115
8181
8117
8191
8155
8158
8181
8095
8200
8046
8219
8028
8228
8029
8174
8026
8119
8096
8128
8169
8112
8155
8088
8137
8112
8111
8140
8078
8167
8062
8200
8068
8186
8099
8170
8184
8166
8260
8158
8313
8128
8288
8121
8274
8157
8210
8156
8147
8180
8146
8214
8159
8191
8201
8141
8212
8078
8234
8050
8240
8057
8218
8094
8199
8161
8176
8216
8138
8225
8117
8212
8115
8178
8150
8144
8165
8109
8174
8102
8176
8100
8143
8146
8093
8196
8066
8228
8050
8249
8054
8224
8072
8174
8107
8131
8141
8119
8158
8109
8147
8120
8121
8151
8089
8184
8067
8213
8064
8202
8089
8184
8166
8178
8239
8150
8274
8128
8282
8139
8271
8164
8224
8169
8165
8184
8147
8213
8151
8169
8165
8118
8198
8089
8246
8070
8282
8092
8279
8114
8230
8150
8174
8173
8116
8184
8092
8174
8099
8159
8133
8131
8161
8098
8167
8068
8151
8076
8142
8115
8099
8178
8070
8220
8059
8246
8060
8234
8070
8178
8087
8110
8106
8082
8121
8076
8130
8111
8117
8151
8086
8179
8057
8200
8043
8218
8098
8215
8168
8217
8235
8167
8247
8117
8259
8133
8283
8201
8262
8220
8213
8241
8179
8245
8182
8226
8215
8201
8276
8170
8306
8117
8307
8097
8287
8109
8246
8146
8202
8184
8161
8212
8128
8203
8122
8168
8134
8119
8155
8073
8149
8044
8174
8077
8169
8120
8139
8170
8083
8216
8073
8258
8065
8233
8063
8178
8082
8136
8140
8141
8169
8118
8154
8128
8127
8152
8081
8196
8057
8220
8029
8190
8025
8161
8055
8106
8111
8093
8188
8093
8200
8075
8171
8079
8146
8143
8157
8181
8097
8155
8091
8147
8116
8127
8197
8127
8272
8106
8315
8135
8324
8109
8245
8128
8220
8206
8231
8271
8212
8279
8177
8169
8112
8066
8109
8048
8171
8063
8197
8066
8184
8102
8152
8162
8104
8197
8074
8250
8097
8288
8142
8273
8161
8206
8183
8145
8167
8110
8147
8113
8126
8175
8120
8221
8071
8209
7999
8155
7995
8161
8070
8202
8209
8229
8260
8143
8192
8008
8051
7960
8028
8045
8072
8163
8153
8289
8207
8270
8177
8174
8169
8084
8182
8047
8220
8042
8266
8095
8264
8127
8238
8197
8218
8239
8195
8232
8144
8161
8146
8135
8217
8133
8256
8090
8229
8088
8199
8073
8183
8238
8266
8316
8144
8190
7957
8076
7961
8086
8013
8083
8100
8116
8175
8147
8224
8212
8235
8249
8190
8280
8136
8305
8143
8352
8195
8364
8208
8285
8173
8152
8147
8085
8164
8119
8230
8157
8214
8204
8174
8233
8121
8210
8095
8190
8102
8143
8114
8083
8193
8096
8247
8046
8160
7950
8090
7958
8070
8063
8181
8246
8248
8280
8174
8163
8145
8141
8238
8191
8324
8146
8278
8071
8197
8049
8136
8094
8107
8162
8119
8244
8099
8242
8124
8267
8167
8218
8197
8139
8145
8082
8154
8108
8165
8209
8221
8337
8233
8334
8072
8215
7978
8122
7967
8092
8027
8106
8187
8242
8334
8250
8255
8125
8133
8121
8099
8158
8058
8147
8038
8165
8054
8113
8071
8049
8121
8075
8235
8073
8241
8025
8143
8020
8183
8142
8204
8199
8153
8170
8120
8150
8149
8143
8185
8093
8217
8062
8239
8057
8245
8088
8181
8068
8071
8047
8012
8160
8164
8327
8224
8297
8191
8183
8123
8045
8090
8012
8093
8087
8214
8270
8331
8370
8198
8258
8034
8138
7919
8114
8013
8228
8170
8241
8222
8183
8169
8074
8107
8049
8181
8324
8348
8405
8289
8340
8130
8219
8068
8170
8113
8145
8159
8106
8230
8101
8259
8090
8249
8128
8214
8101
8123
8127
8128
8155
8097
8177
8197
8214
8275
8132
8136
7938
8079
7920
8136
8003
8166
8096
8206
8204
8207
8257
8190
8294
8172
8266
8205
8245
8214
8157
8236
8181
8260
8114
8177
8110
8104
8112
8037
8187
8060
8228
8009
8142
7966
8141
8037
8089
8048
8034
8050
8025
8089
8066
8089
8110
8114
8238
8197
8368
8237
8418
8309
8378
8175
8149
8169
8140
8219
8125
8299
8189
8371
8271
8380
8279
8259
8183
8118
8157
8114
8190
8180
8210
8250
8187
8255
8069
8239
8086
8378
8316
8500
8345
8345
8172
8062
8030
7971
8090
8047
8123
8036
8062
8138
8185
8291
8184
8206
8021
8036
7932
7992
8040
8052
8207
8111
8274
8028
8165
7979
8100
7991
8101
8084
8113
8137
8104
8194
8170
8212
8250
8225
8295
8173
8308
8152
8323
8125
8233
8086
8152
8137
8188
8299
8227
8283
8105
8215
8077
8130
8038
8087
8120
8131
8175
8086
8121
8071
8062
8039
7950
8030
7913
8137
8059
8348
8179
8389
8229
8265
8085
8047
8039
8007
8091
8060
8133
8097
8133
8144
8112
8174
8065
8147
8033
8202
8164
8238
8222
8194
8252
8130
8267
8101
8266
8075
8218
8077
8141
8064
8068
8073
8075
8150
8115
8160
8138
8093
8133
8024
8170
8054
8293
8163
8332
8108
8134
8084
8204
8322
8335
8458
8298
8296
8083
8117
8043
8062
8078
8117
8266
8147
8114
8001
8060
8090
8070
8153
8060
8255
8096
8308
8114
8306
8166
8300
8234
8286
8304
8300
8353
8273
8297
8238
8246
8252
8176
8253
8115
8262
8143
8281
8109
8165
8112
8129
8222
8210
8394
8264
8385
8153
8225
8046
8140
8111
8121
8102
8029
8047
8008
8080
8088
8069
8177
8111
8222
8009
8146
7958
8179
8118
8318
8239
8226
8153
8024
8015
7893
8014
7981
8097
8084
8113
8128
8095
8135
8031
8105
8065
8147
8161
8171
8232
8150
8282
8074
8252
8057
8255
8095
8216
8112
8216
8296
8329
8330
8243
8236
8120
8147
8188
8111
8138
7981
8101
7986
8142
8033
8177
8154
8207
8210
8166
8301
8186
8336
8182
8298
8142
8203
8113
8121
8140
8119
8196
8148
8201
8173
8158
8202
8107
8234
8067
8277
8111
8309
8108
8231
8090
8150
8152
8123
8101
7993
8096
8092
8236
8235
8175
8123
8037
8091
8004
8095
7983
8078
8072
8129
8182
8169
8298
8108
8271
8085
8258
8066
8163
8034
8103
8088
8116
8186
8185
8238
8140
8106
8106
8063
8138
8066
8283
8164
8394
8252
8382
8324
8398
8382
8291
8308
8185
8296
8114
8227
8093
8154
8115
8147
8158
8081
8108
8055
8120
8079
8068
8097
8018
8131
7987
8188
8107
8397
8264
8365
8144
8187
8111
8094
8156
8169
8259
8156
8183
8142
8164
8230
8141
8183
8062
8195
8097
8231
8165
8186
8181
8150
8285
8174
8328
8133
8283
8080
8199
8093
8192
8154
8165
8195
8126
8154
8091
8075
8079
8034
8132
8076
8295
8133
8279
8045
8186
8038
8067
8031
8060
8134
8123
8283
8153
8205
8044
8077
8015
8034
8074
8049
8149
8120
8207
8115
8102
8084
8023
8126
8001
8184
8040
8321
8207
8368
8174
8236
8140
8110
8135
8104
8187
8169
8236
8173
8151
8180
8159
8297
8139
8202
8007
8092
7992
8069
8077
8089
8181
8099
8248
8120
8328
8185
8327
8206
8253
8183
8185
8225
8180
8246
8180
8150
8109
8038
8102
8015
8192
8132
8406
8170
8209
7991
8053
7989
8059
8172
8173
8290
8223
8298
8140
8148
8095
8119
8175
8202
8396
8369
8304
8060
8022
8019
8060
8239
8155
8292
8076
8266
8092
8302
8150
8222
8116
8172
8214
8227
8291
8185
8185
8124
8103
8124
8095
8274
8175
8315
8107
8210
8094
8193
8155
8169
8222
8134
8219
8051
8154
8006
8124
8022
8088
8035
8016
8033
8044
8204
8266
8319
8235
8105
8111
8016
8208
8107
8364
8225
8336
8060
8104
7983
8036
8091
8106
8201
8123
8206
8127
8170
8140
8131
8144
8061
8113
8005
8159
8143
8235
8190
8140
8185
8091
8183
7998
8167
8009
8220
8148
8326
8235
8204
8110
8101
8242
8213
8193
8110
8044
8035
7971
8099
8024
8246
8106
8262
8105
8235
8196
8275
8319
8260
8349
8204
8286
8115
8272
8184
8281
8252
8188
8136
8022
8052
7989
8071
8149
8211
8239
8060
8117
7952
8149
8014
8256
8117
8292
8195
8239
8198
8193
8294
8289
8353
8285
8305
8218
8166
8177
8098
8207
8126
8301
8209
8307
8201
8145
8101
8004
8125
8019
8250
8120
8295
8184
8365
8219
8157
8066
7990
8033
8073
8132
8078
8078
8114
8069
8181
8049
8223
8001
8119
7958
8147
8133
8320
8282
8174
8188
8058
8111
7967
8064
7993
8039
7990
7962
7988
7955
8091
8086
8195
8200
8302
8338
8189
8256
8087
8267
8065
8270
8114
8284
8119
8211
8171
8175
8193
8146
8244
8182
8239
8214
8178
8204
8140
8358
8359
8561
8391
8378
8195
8154
8084
8058
8164
8065
8240
8079
8258
8121
8247
8114
8123
8100
8082
8089
8040
8115
8117
8142
8184
8136
8226
8074
8230
8075
8313
8139
8308
8170
8225
8160
8165
8199
8130
8259
8158
8242
8116
8149
8138
8136
8178
8114
8199
8117
8200
8131
8156
8158
8090
8196
8087
8298
8136
8319
8100
8223
8078
8170
8079
8112
8113
8033
8062
8033
8111
8113
8083
8120
8048
8154
8023
8193
8052
8149
8007
8046
8000
7992
8125
8111
8310
8174
8270
8055
8109
7989
8055
8087
8126
8189
8159
8249
8219
8249
8278
8207
8284
8137
8280
8087
8308
8116
8268
8089
8189
8128
8160
8195
8171
8218
8084
8088
7972
8002
8005
8013
8118
8101
8255
8140
8207
8143
8225
8251
8221
8291
8157
8257
8061
8238
8045
8161
8029
8216
8245
8322
8349
8258
8157
8001
7948
7922
7991
8151
8142
8263
8046
8217
8075
8225
8058
8111
8054
8091
8178
8168
8356
8286
8381
8198
8276
8208
8294
8272
8243
8293
8259
8322
8242
8268
8241
8179
8216
8082
8231
8110
8372
8235
8408
8183
8177
8024
8059
8082
8081
8197
8167
8249
8149
8202
8199
8163
8204
8092
8206
8110
8265
8180
8262
8219
8187
8202
8066
8183
8015
8143
7997
8200
8076
8191
8108
8142
8136
8104
8141
8076
8090
8070
8081
8153
8068
8142
7979
8159
8074
8344
8204
8232
8083
8088
8060
8030
8137
8062
8183
8066
8158
8105
8159
8142
8120
8182
8129
8211
8141
8182
8121
8068
8087
7986
8153
8050
8291
8129
8310
8079
8152
8006
8066
8085
8107
8140
8062
8117
8101
8216
8319
8318
8314
8099
8113
7975
8165
8135
8306
8232
8190
8136
8011
8099
7973
8136
8028
8228
8082
8200
8165
8223
8198
8136
8152
8114
8198
8193
8199
8233
8151
8271
8130
8330
8163
8394
8232
8312
8162
8219
8196
8178
8248
8173
8260
8109
8165
8086
8115
8103
8092
8165
8100
8205
8143
8200
8117
8106
8130
8031
8161
8028
8256
8114
8318
8121
8248
8117
8202
8165
8153
8167
8144
8229
8207
8278
8307
8256
8262
8078
8158
8014
8174
8054
8163
8016
8031
8004
7969
8124
8145
8361
8226
8231
7985
8042
7972
8010
8037
8054
8132
8154
8283
8233
8201
8172
8079
8201
8069
8251
8068
8274
8081
8224
8076
8175
8130
8168
8223
8181
8243
8128
8221
8181
8244
8211
8121
8144
8056
8207
8173
8293
8139
8062
8012
7913
7978
7902
8150
8048
8266
8077
8227
8133
8283
8328
8394
8404
8369
8383
8283
8289
8308
8296
8367
8223
8269
8054
8192
8031
8180
8083
8186
8176
8202
8285
8195
8255
8064
8158
8069
8218
8181
8269
8258
8209
8253
8203
8294
8196
8129
8094
7999
8070
7977
8270
8189
8363
8106
8212
7995
8031
7962
8000
8059
8062
8144
8124
8232
8186
8205
8203
8174
8264
8129
8203
8071
8215
8167
8212
8134
8057
8185
8203
8413
8187
8243
7969
8088
8009
8172
8228
8330
8352
8211
8103
7977
8007
8121
8195
8251
8072
8115
7918
8073
7929
8103
7986
8083
8010
8025
8029
7951
8026
7930
8042
7948
8047
8034
8092
8135
8145
8257
8208
8325
8303
8386
8409
8356
8387
8239
8386
8223
8412
8196
8321
8106
8204
8101
8155
8149
8122
8202
8191
8236
8148
8147
8128
8083
8181
8094
8239
8101
8210
8064
8137
8101
8134
8187
8063
8134
7974
8129
7973
8129
8068
8186
8149
8193
8198
8140
8180
8130
8171
8164
8124
8197
8100
8222
8050
8234
8033
8195
8028
8155
8024
8021
8041
8109
8351
8357
8396
8202
8231
8135
8188
8263
8235
8265
8121
8199
8119
8214
8208
8195
8236
8204
8377
8165
8282
7975
8079
7912
8096
8061
8158
8147
8103
8097
8025
8076
8041
8085
8128
8098
8170
8043
8158
8045
8315
8335
8479
8290
8132
8101
8125
8295
8176
8284
8101
8241
8116
8206
8135
8148
8227
8254
8301
8181
8182
8187
8230
8337
8300
8395
8128
8256
8023
8172
7953
8074
7985
8084
8086
8089
8127
8067
8147
8086
8151
8094
8124
8160
8183
8326
8226
8286
8088
8081
8035
8073
8059
7971
8144
8116
8315
8089
8234
8005
8110
7998
8058
8048
8089
8191
8184
8244
8199
8207
8215
8187
8305
8183
8310
8136
8336
8173
8274
8104
8153
8136
8094
8197
8122
8270
8145
8289
8169
8237
8146
8139
8106
8041
8123
8170
8360
8382
8300
8126
7886
7940
7855
8059
7896
8114
7973
8179
8120
8296
8287
8310
8332
8251
8261
8148
8192
8150
8141
8151
8100
8183
8089
8261
8180
8305
8218
8268
8276
8243
8341
8189
8301
8098
8259
8097
8259
8109
8174
8101
8073
8064
8015
8070
8082
8131
8123
8071
8194
8104
8213
8007
8198
8063
8240
8160
8241
8151
8112
8116
8041
8147
8048
8158
8047
8080
8022
8026
8059
8055
8155
8093
8189
8151
8134
8110
8053
8185
8149
8343
8103
8266
8035
8165
8025
8161
8140
8205
8159
8031
8046
7998
8084
8194
8347
8413
8308
8327
8189
8322
8186
8300
8167
8233
8254
8288
8373
8265
8362
8123
8224
8065
8248
8131
8174
8093
8080
8118
8105
8166
8118
8135
8109
8039
8081
7957
8094
7966
8205
8053
8254
8114
8232
8186
8222
8237
8187
8248
8129
8214
8120
8174
8155
8200
8265
8185
8233
8085
8135
8046
8130
8172
8144
8189
8073
8259
8093
8235
8043
8279
8141
8247
8185
8235
8202
8135
8162
8097
8117
8061
8072
8121
8072
8164
8050
8209
8056
8182
8060
8217
8221
8270
8331
8252
8325
8118
8198
8033
8158
8095
8205
8185
8281
8313
8169
8138
8034
8060
8146
8235
8314
8082
8101
7939
8094
7901
8103
8003
8173
8048
8048
8014
8016
8136
8100
8163
8047
8060
8015
8057
8141
8122
8276
8204
8330
8232
8296
8259
8271
8307
8201
8324
8134
8295
8089
8261
8098
8227
8134
8187
8146
8126
8191
8185
8261
8209
8169
8181
8120
8258
8123
8293
8103
8225
8040
8145
8056
8095
8115
8126
8245
8122
8225
8075
8184
8089
8199
8185
8217
8246
8133
8153
8070
8110
8079
8090
8150
8059
8170
8007
8220
8073
8305
8125
8280
8179
8256
8222
8190
8186
8088
8158
8108
8157
8135
8131
8196
8143
8259
8108
8221
8100
8179
8112
8150
8178
8109
8203
8053
8212
8046
8232
8076
8191
8082
8128
8109
8094
8118
8087
8173
8160
8156
8181
8091
8197
8102
8314
8164
8361
8159
8217
8034
8088
8114
8163
8250
8127
8194
8060
8150
8069
8131
8119
8115
8168
8152
8248
8161
8266
8203
8183
8189
8087
8183
8033
8192
7976
8163
8012
8192
8052
8111
8076
8143
8245
8209
8264
8229
8267
8221
8199
8248
8171
8294
8132
8233
8056
8171
8101
8164
8148
8095
8169
8059
8228
8071
8227
8058
8156
8056
8109
8088
8067
8091
8056
8150
8146
8182
8201
8109
8199
8085
8281
8136
8356
8200
8356
8215
8290
8229
8218
8215
8121
8213
8112
8223
8116
8156
8146
8160
8227
8142
8209
8106
8206
8149
8189
8189
8149
8242
8113
8283
8074
8256
8058
8221
8082
8175
8113
8124
8141
8112
8151
8095
8132
8130
8119
8164
8094
8231
8095
8270
8116
8230
8116
8182
8130
8105
8163
8069
8207
8069
8214
8079
8201
8106
8170
8148
8135
8148
8099
8153
8117
8141
8160
8103
8198
8086
8258
8076
8267
8059
8227
8089
8221
8153
8174
8170
8102
8173
8099
8182
8128
8167
8158
8137
8185
8113
8204
8097
8204
8104
8151
8129
8087
8156
8047
8196
8024
8201
8022
8165
8027
8130
8081
8175
8248
8228
8270
8186
8230
8190
8133
8137
8041
8144
8008
8177
8045
8244
8150
8260
8204
8229
8275
8235
8374
8269
8398
8256
8335
8225
8263
8210
8166
8203
8136
8196
8121
8169
8159
8111
8177
8065
8230
8067
8270
8065
8258
8090
8223
8144
8173
8150
8118
8176
8102
8167
8108
8149
8138
8110
8166
8085
8184
8070
8202
8084
8169
8116
8115
8162
8076
8209
8062
8224
8053
8209
8071
8182
8095
8124
8117
8079
8108
8065
8099
8090
8083
8133
8066
8189
8024
8180
8044
8249
8125
8291
8223
8255
8227
8165
8222
8129
8265
8145
8259
8164
8216
8206
8152
8175
8095
8161
8107
8174
8172
8180
8229
8118
8226
8050
8243
8033
8226
8054
8196
8083
8158
8127
8107
8141
8089
8148
8107
8140
8162
8181
8271
8151
8257
8093
8224
8096
8196
8110
8139
8179
8151
8261
8128
8297
8126
8293
8150
8255
8144
8164
8139
8082
8099
8017
8042
8012
8031
8095
8039
8165
8046
8237
8055
8246
8097
8297
8222
8310
8298
8245
8257
8136
8220
8114
8191
8139
8196
8197
8162
8224
8133
8227
8136
8205
8171
8180
8206
8118
8223
8073
8254
8060
8255
8082
8226
8103
8179
8133
8128
8149
8109
8154
8111
8133
8133
8102
8162
8072
8185
8051
8206
8063
8191
8097
8159
8155
8110
8194
8080
8217
8076
8227
8092
8200
8130
8168
8174
8154
8180
8126
8165
8127
8126
8160
8092
8204
8058
8234
8035
8225
8049
8221
8108
8200
8147
8146
8163
8105
8197
8120
8202
8140
8176
8181
8147
8223
8121
8228
8128
8225
8165
8185
8195
8140
8223
8086
8259
8070
8256
8072
8222
8098
8191
8141
8156
8189
8136
8174
8128
8152
8163
8127
8197
8097
8238
8069
8244
8074
8220
8100
8182
8145
8141
8189
8104
8216
8080
8206
8082
8179
8121
8164
8163
8134
8174
8126
8194
8146
8181
8191
8123
8218
8092
8257
8061
8263
8064
8237
8094
8204
8132
8168
8172
8128
8198
8114
8175
8135
8162
8167
8130
8205
8104
8220
8095
8212
8122
8177
8164
8135
8203
8095
8235
8072
8251
8073
8222
8093
8193
8140
8155
8165
8131
8166
8132
8154
8152
8132
8203
8094
8235
8065
8243
8073
8233
8093
8202
8153
8163
8192
8119
8215
8100
8216
8112
8205
8140
8159
8167
8127
8188
8118
8193
8125
8168
8156
8114
8207
8082
8230
8052
8254
8059
8237
8082
8208
8119
8171
8168
8133
8187
8127
8184
8145
8158
8165
8117
8200
8094
8229
8084
8215
8106
8193
8153
8151
8192
8096
8228
8082
8242
8074
8229
8102
8196
8134
8158
8172
8141
8181
8140
8166
8157
8139
8195
8093
8232
8064
8254
8069
8242
8091
8214
8131
8167
8174
8115
8201
8111
8203
8107
8190
8141
8160
8169
8129
8204
8117
8209
8127
8175
8154
8141
8194
8091
8226
8066
8255
8068
8261
8088
8212
8112
8175
8167
8141
8183
8120
8165
8131
8143
8161
8121
8208
8092
8247
8092
8239
8100
8204
8144
8166
8185
8120
8221
8094
8244
8074
8205
8089
8172
8129
8153
8160
8124
8177
8134
8165
8146
8133
8186
8095
8224
8069
8254
8060
8252
8077
8218
8114
8189
8171
8153
8205
8117
8206
8120
8185
8138
8145
8165
8126
8190
8099
8203
8110
8190
8150
8153
8181
8101
8220
8067
8248
8059
8244
8075
8208
8111
8177
8145
8139
8168
8123
8171
8131
8142
8157
8110
8203
8080
8239
8071
8226
8082
8213
8132
8183
8177
8142
8211
8106
8229
8095
8235
8121
8206
8147
8162
8174
8133
8179
8117
8177
8144
8153
8187
8103
8218
8066
8251
8055
8261
8076
8234
8104
8191
8157
8160
8193
8125
8196
8121
8177
8141
8144
8169
8115
8196
8094
8212
8095
8193
8123
8158
8167
8109
8213
8079
8235
8066
8253
8087
8217
8107
8178
8137
8132
8154
8109
8156
8120
8133
8150
8106
8209
8073
8238
8064
8232
8071
8221
8111
8193
8182
8185
8238
8159
8262
8125
8246
8123
8202
8147
8150
8168
8120
8194
8116
8177
8126
8154
8178
8111
8220
8082
8248
8055
8257
8062
8224
8100
8202
8148
8160
8180
8122
8186
8131
8182
8142
8153
8175
8125
8228
8088
8219
8098
8201
8113
8177
8168
8119
8205
8093
8237
8070
8240
8075
8221
8113
8188
8142
8137
8170
8125
8167
8133
8147
8152
8117
8206
8081
8225
8052
8237
8049
8205
8066
8174
8111
8136
8159
8080
8172
8066
8160
8087
8161
8124
8132
8169
8121
8200
8126
8210
8156
8194
8191
8155
8229
8110
8274
8094
8289
8096
8263
8106
8224
8167
8197
8198
8158
8205
8140
8181
8160
8156
8189
8117
8231
8082
8237
8079
8223
8097
8192
8149
8160
8199
8103
8236
8094
8250
8096
8234
8107
8183
8142
8145
8166
8122
8175
8135
8174
8166
8122
8202
8086
8233
8053
8263
8059
8239
8085
8218
8138
8179
8171
8122
8196
8104
8183
8106
8159
8136
8130
8152
8087
8175
8087
8190
8110
8178
8152
8137
8187
8084
8220
8056
8237
8058
8221
8074
8202
8112
8163
8150
8139
8193
8135
8167
8142
8145
8184
8113
8238
8106
8265
8096
8238
8090
8211
8129
8157
8168
8109
8213
8092
8224
8090
8226
8118
8177
8162
8161
8188
8133
8193
8132
8178
8161
8137
8196
8085
8234
8066
8256
8060
8258
8082
8220
8123
8192
8174
8145
8197
8120
8199
8121
8163
8137
8134
8175
8100
8206
8089
8209
8099
8189
8138
8153
8178
8096
8210
8057
8232
8053
8239
8088
8213
8113
8156
8144
8125
8151
8123
8159
8137
8145
8188
8106
8211
8076
8244
8046
8226
8068
8215
8113
8179
8162
8126
8205
8105
8217
8097
8191
8104
8167
8143
8144
8189
8142
8220
8139
8196
8157
8151
8186
8101
8212
8068
8252
8066
8253
8077
8227
8116
8199
8165
8164
8187
8140
8204
8149
8181
8174
8165
8234
8129
8244
8100
8226
8100
8211
8122
8180
8175
8109
8208
8089
8232
8067
8240
8086
8211
8115
8161
8147
8136
8165
8123
8157
8123
8133
8160
8102
8208
8081
8249
8064
8258
8072
8222
8093
8182
8142
8141
8177
8106
8195
8093
8185
8109
8176
8159
8154
8189
8127
8203
8103
8191
8128
8159
8171
8116
8216
8073
8250
8054
8251
8057
8213
8087
8184
8120
8139
8156
8126
8173
8137
8174
8152
8135
8183
8086
8204
8078
8242
8087
8220
8125
8213
8199
8186
8238
8130
8274
8126
8288
8139
8254
8142
8190
8153
8137
8179
8124
8164
8124
8144
8168
8107
8207
8077
8250
8063
8252
8060
8232
8084
8193
8123
8163
8175
8121
8197
8105
8182
8113
8151
8140
8124
8174
8104
8200
8099
8200
8118
8173
8161
8117
8198
8076
8235
8057
8241
8059
8221
8087
8195
8130
8171
8172
8127
8168
8119
8160
8148
8131
8196
8100
8231
8077
8255
8082
8242
8113
8216
8159
8173
8189
8116
8222
8099
8221
8092
8205
8116
8154
8138
8125
8160
8101
8181
8119
8158
8158
8122
8197
8088
8254
8076
8280
8086
8269
8105
8229
8132
8183
8184
8163
8205
8129
8201
8127
8160
8154
8128
8169
8102
8215
8095
8209
8111
8184
8146
8138
8189
8100
8234
8068
8245
8068
8229
8087
8205
8120
8172
8162
8133
8173
8123
8160
8145
8126
8184
8097
8216
8064
8238
8058
8223
8067
8199
8109
8156
8166
8113
8207
8106
8221
8116
8226
8141
8200
8181
8171
8227
8148
8223
8147
8195
8168
8154
8206
8101
8235
8067
8260
8058
8254
8080
8214
8112
8184
8161
8137
8180
8127
8182
8125
8164
8151
8118
8192
8095
8213
8081
8215
8094
8192
8132
8156
8176
8107
8214
8079
8247
8072
8232
8085
8199
8120
8152
8152
8133
8163
8129
8163
8138
8144
8184
8102
8223
8077
8257
8058
8238
8077
8219
8110
8176
8155
8137
8187
8101
8203
8098
8185
8119
8161
8157
8137
8186
8116
8207
8116
8195
8151
8159
8191
8108
8232
8072
8255
8063
8264
8083
8237
8112
8193
8165
8151
8186
8141
8182
8130
8162
8159
8129
8203
8094
8239
8084
8238
8087
8211
8112
8173
8164
8133
8199
8086
8222
8067
8220
8089
8192
8109
8149
8143
8127
8185
8141
8211
8181
8198
8208
8129
8241
8091
8259
8060
8253
8056
8224
8091
8187
8145
8152
8182
8117
8197
8120
8183
8126
8151
8160
8133
8201
8107
8209
8097
8201
8147
8192
8187
8139
8219
8091
8254
8065
8249
8076
8222
8093
8182
8138
8144
8167
8126
8169
8133
8155
8155
8127
8198
8090
8235
8077
8242
8077
8220
8101
8192
8148
8140
8193
8106
8216
8083
8210
8085
8179
8115
8139
8138
8112
8163
8110
8175
8123
8151
8161
8110
8185
8075
8248
8056
8254
8060
8236
8098
8224
8165
8201
8206
8155
8210
8131
8209
8137
8152
8150
8107
8173
8080
8205
8088
8205
8108
8185
8161
8131
8190
8084
8229
8075
8253
8086
8255
8120
8217
8161
8181
8187
8147
8175
8134
8166
8150
8129
8196
8095
8222
8065
8249
8057
8235
8086
8198
8136
8162
8183
8127
8205
8100
8208
8101
8198
8127
8158
8161
8125
8186
8117
8196
8128
8170
8156
8140
8210
8093
8243
8063
8259
8068
8259
8097
8220
8134
8188
8172
8148
8206
8132
8182
8138
8154
8161
8117
8200
8088
8231
8076
8209
8087
8181
8139
8147
8170
8093
8210
8064
8225
8073
8231
8092
8197
8137
8159
8169
8139
8180
8131
8178
8174
8165
8217
8113
8259
8087
8275
8080
8266
8094
8222
8136
8182
8174
8130
8192
8103
8190
8102
8179
8120
8155
8164
8118
8186
8105
8197
8110
8177
8144
8128
8187
8090
8218
8062
8248
8049
8248
8074
8204
8103
8173
8147
8139
8166
8118
8165
8136
8149
8165
8126
8203
8087
8241
8082
8242
8097
8209
8139
8173
8177
8132
8217
8095
8237
8090
8235
8105
8192
8125
8151
8167
8126
8177
8132
8178
8146
8137
8179
8082
8212
8051
8235
8039
8226
8055
8202
8084
8157
8120
8119
8169
8111
8210
8133
8226
8175
8207
8234
8156
8239
8131
8231
8126
8219
8170
8194
8216
8147
8244
8093
8265
8077
8262
8091
8225
8122
8191
8153
8146
8168
8132
8171
8137
8147
8155
8122
8197
8083
8230
8070
8245
8074
8213
8104
8180
8155
8138
8195
8092
8211
8082
8206
8100
8175
8132
8148
8160
8122
8180
8117
8178
8132
8139
8166
8098
8209
8067
8245
8063
8263
8071
8228
8100
8187
8131
8136
8152
8112
8184
8107
8167
8134
8139
8165
8115
8230
8113
8245
8106
8214
8126
8176
8162
8118
8209
8091
8261
8088
8271
8097
8245
8117
8193
8148
8152
8173
8129
8180
8137
8156
8177
8127
8218
8096
8248
8072
8257
8073
8231
8099
8194
8140
8155
8188
8111
8213
8103
8212
8111
8186
8139
8149
8168
8120
8182
8112
8187
8122
8168
8171
8122
8204
8082
8243
8054
8260
8060
8235
8092
8198
8129
8171
8183
8137
8196
8128
8184
8153
8156
8168
8112
8204
8082
8218
8082
8208
8105
8183
8155
8147
8197
8100
8226
8076
8248
8091
8231
8109
8192
8142
8151
8166
8129
8169
8124
8154
8165
8128
8207
8092
8247
8069
8259
8066
8235
8084
8206
8139
8162
8186
8127
8212
8118
8207
8115
8179
8140
8147
8168
8108
8185
8101
8200
8121
8178
8159
8142
8202
8090
8240
8069
8258
8061
8245
8076
8191
8110
8150
8147
8122
8149
8101
8144
8110
8117
8152
8093
8213
8088
8246
8087
8239
8129
8240
8190
8206
8232
8155
8255
8124
8278
8128
8260
8137
8210
8162
8162
8182
8142
8181
8132
8176
8166
8132
8204
8101
8254
8070
8262
8064
8253
8086
8213
8116
8171
8158
8120
8179
8102
8178
8109
8167
8131
8139
8168
8105
8198
8097
8199
8108
8175
8147
8140
8182
8089
8220
8060
8245
8060
8240
8082
8212
8117
8173
8144
8125
8158
8116
8159
8135
8137
8174
8099
8212
8079
8249
8076
8236
8090
8210
8128
8166
8169
8112
8201
8086
8221
8095
8222
8113
8172
8136
8133
8155
8106
8161
8107
8169
8139
8128
8193
8086
8215
8057
8241
8040
8220
8055
8198
8094
8166
8150
8137
8193
8127
8203
8141
8204
8170
8158
8215
8135
8254
8141
8282
8168
8263
8198
8215
8222
8150
8247
8103
8263
8088
8257
8089
8221
8126
8188
8162
8146
8180
8126
8169
8142
8148
8177
8108
8211
8080
8249
8058
8232
8069
8205
8101
8169
8153
8116
8186
8089
8206
8088
8188
8109
8162
8143
8135
8165
8115
8193
8117
8177
8134
8147
8172
8093
8214
8062
8250
8061
8261
8075
8227
8104
8183
8130
8128
8154
8110
8173
8114
8156
8136
8126
8171
8097
8204
8082
8214
8086
8208
8120
8165
8162
8113
8209
8082
8229
8075
8243
8093
8220
8125
8186
8158
8138
8165
8125
8175
8144
8166
8191
8126
8219
8081
8248
8064
8246
8071
8228
8115
8202
8161
8156
8193
8112
8204
8099
8202
8119
8166
8156
8143
8200
8121
8209
8114
8187
8139
8178
8197
8127
8229
8085
8263
8067
8263
8072
8230
8097
8198
8138
8151
8162
8127
8173
8124
8160
8151
8131
8186
8095
8233
8088
8251
8093
8224
8114
8183
8164
8135
8202
8092
8220
8076
8231
8078
8194
8098
8150
8137
8121
8155
8106
8153
8113
8129
8149
8110
8201
8081
8251
8080
8294
8100
8269
8120
8222
8158
8171
8194
8135
8213
8123
8204
8125
8160
8144
8129
8175
8103
8204
8097
8191
8112
8160
8161
8118
8208
8079
8228
8057
8243
8066
8246
8102
8215
8149
8200
8215
8189
8246
8186
8245
8224
8186
8233
8128
8250
8085
8251
8084
8232
8106
8200
8153
8153
8189
8101
8216
8087
8216
8090
8199
8115
8161
8141
8123
8162
8111
8164
8117
8141
8155
8102
8194
8075
8230
8058
8250
8049
8231
8074
8200
8117
8157
8166
8120
8186
8110
8176
8124
8155
8156
8122
8185
8104
8218
8095
8211
8118
8192
8165
8148
8202
8090
8229
8061
8239
8063
8218
8089
8197
8133
8160
8160
8137
8174
8133
8161
8153
8142
8194
8103
8238
8073
8252
8067
8231
8086
8204
8140
8161
8164
8114
8207
8097
8238
8109
8210
8136
8169
8156
8134
8179
8116
8198
8132
8186
8175
8155
8206
8096
8245
8075
8263
8065
8251
8086
8211
8114
8184
8170
8143
8194
8126
8186
8131
8156
8160
8123
8185
8101
8229
8083
8220
8103
8196
8150
8151
8177
8103
8218
8080
8230
8069
8235
8093
8194
8125
8153
8155
8129
8178
8128
8180
8149
8134
8189
8103
8226
8083
8260
8078
8260
8089
8224
8118
8172
8160
8117
8183
8091
8187
8094
8176
8113
8141
8144
8118
8187
8123
8235
8166
8221
8180
8175
8215
8119
8241
8084
8271
8064
8256
8075
8216
8105
8185
8160
8163
8201
8138
8190
8144
8158
8152
8118
8197
8082
8225
8075
8217
8089
8201
8134
8173
8180
8116
8202
8069
8213
8063
8226
8095
8194
8126
8149
8150
8123
8172
8126
8161
8144
8158
8192
8109
8230
8077
8254
8066
8258
8077
8227
8104
8192
8167
8153
8191
8114
8201
8105
8182
8128
8156
8167
8121
8191
8108
8203
8110
8191
8141
8152
8177
8110
8217
8072
8251
8058
8250
8071
8217
8099
8181
8137
8142
8167
8118
8166
8130
8150
8162
8124
8194
8092
8238
8075
8233
8086
8218
8114
8183
8162
8134
8201
8098
8229
8088
8237
8102
8202
8130
8161
8165
8138
8184
8127
8187
8143
8155
8184
8116
8222
8080
8259
8063
8265
8072
8230
8097
8194
8133
8159
8177
8121
8194
8110
8181
8133
8150
8168
8126
8207
8104
8218
8103
8196
8118
8168
8185
8138
8225
8095
8264
8076
8258
8078
8228
8105
8187
8140
8153
8186
8142
8183
8145
8159
8160
8115
8198
8086
8236
8075
8252
8077
8227
8095
8188
8150
8149
8186
8106
8216
8086
8213
8099
8173
8126
8148
8156
8117
8171
8106
8183
8125
8155
8167
8108
8208
8079
8253
8061
8264
8066
8240
8095
8203
8133
8171
8181
8142
8205
8140
8191
8150
8159
8174
8129
8214
8099
8220
8096
8212
8113
8181
8160
8139
8208
8091
8232
8075
8249
8083
8221
8105
8191
8134
8146
8168
8127
8169
8131
8160
8173
8135
8208
8092
8240
8066
8255
8074
8235
8091
8195
8136
8153
8169
8102
8181
8084
8196
8097
8173
8131
8152
8175
8153
8245
8153
8227
8155
8187
8175
8125
8202
8076
8241
8062
8261
8067
8257
8090
8206
8122
8168
8166
8124
8166
8114
8174
8139
8144
8169
8116
8214
8089
8219
8078
8217
8098
8183
8146
8151
8195
8100
8219
8079
8243
8086
8234
8108
8191
8145
8152
8171
8148
8205
8150
8189
8181
8147
8209
8104
8248
8075
8262
8056
8234
8073
8199
8104
8157
8155
8115
8186
8094
8193
8106
8175
8137
8145
8179
8141
8238
8142
8237
8147
8223
8190
8171
8228
8113
8245
8073
8261
8064
8246
8089
8213
8113
8166
8149
8135
8176
8123
8163
8133
8143
8165
8114
8220
8100
8255
8093
8247
8100
8199
8128
8145
8167
8103
8202
8078
8215
8070
8204
8094
8165
8131
8146
8165
8125
8177
8126
8173
8160
8135
8198
8104
8235
8080
8273
8080
8273
8094
8229
8112
8175
8160
8135
8194
8114
8199
8120
8184
8151
8147
8177
8113
8203
8097
8209
8104
8184
8143
8154
8189
8102
8227
8075
8254
8063
8251
8080
8205
8106
8158
8149
8134
8160
8123
8162
8138
8141
8165
8113
8205
8083
8243
8066
8238
8081
8210
8117
8173
8166
8138
8200
8098
8220
8087
8220
8112
8177
8148
8151
8171
8121
8198
8120
8186
8157
8154
8194
8110
8236
8082
8265
8059
8261
8076
8227
8115
8199
8155
8154
8190
8125
8193
8121
8172
8147
8142
8195
8119
8221
8094
8227
8107
8203
8138
8166
8177
8107
8205
8068
8225
8052
8229
8073
8205
8108
8165
8140
8139
8164
8123
8164
8131
8147
8180
8122
8251
8126
8304
8120
8297
8117
8257
8144
8205
8168
8150
8204
8120
8223
8105
8221
8119
8179
8155
8148
8176
8117
8191
8111
8179
8124
8150
8181
8116
8221
8072
8252
8060
8260
8069
8236
8102
8191
8135
8147
8167
8118
8166
8114
8153
8135
8129
8173
8099
8225
8092
8222
8084
8211
8108
8171
8161
8132
8200
8087
8226
8075
8241
8083
8211
8116
8167
8146
8137
8169
8124
8170
8136
8151
8172
8113
8208
8082
8247
8069
8258
8069
8224
8087
8188
8143
8155
8184
8122
8210
8097
8183
8110
8160
8138
8127
8164
8097
8195
8103
8183
8113
8149
8154
8108
8215
8088
8254
8074
8274
8091
8271
8120
8212
8138
8166
8178
8139
8185
8137
8164
8146
8134
8189
8103
8231
8081
8244
8091
8219
8099
8187
8152
8145
8193
8102
8226
8085
8240
8084
8211
8124
8169
8157
8140
8172
8125
8186
8130
8166
8169
8118
8203
8079
8242
8055
8259
8059
8238
8082
8193
8120
8158
8169
8118
8193
8114
8186
8124
8172
8158
8145
8206
8124
8235
8111
8211
8122
8179
8161
8134
8200
8084
8230
8065
8256
8077
8249
8100
8202
8125
8153
8151
8126
8169
8123
8159
8138
8136
8189
8108
8220
8076
8247
8075
8239
8094
8200
8144
8167
8198
8130
8230
8099
8221
8088
8203
8105
8161
8140
8134
8172
8120
8188
8124
8168
8158
8123
8190
8085
8234
8066
8261
8053
8250
8084
8209
8120
8175
8165
8134
8188
8115
8180
8123
8158
8148
8125
8180
8094
8204
8081
8198
8093
8181
8145
8138
8180
8079
8205
8045
8216
8046
8207
8070
8175
8094
8135
8134
8106
8143
8104
8148
8135
8139
8211
8143
8276
8120
8302
8121
8294
8109
8226
8147
8180
8178
8145
8217
8113
8243
8116
8220
8121
8169
8155
8135
8164
8106
8189
8127
8188
8172
8160
8203
8098
8234
8068
8261
8068
8255
8085
8229
8118
8186
8161
8141
8186
8126
8184
8134
8154
8147
8124
8178
8104
8229
8092
8226
8099
8203
8147
8167
8186
8113
8215
8079
8235
8072
8239
8096
8202
8125
8163
8155
8138
8179
8128
8182
8149
8143
8197
8117
8247
8095
8266
8081
8262
8084
8226
8114
8186
8162
8143
8199
8106
8212
8107
8206
8128
8162
8151
8130
8175
8105
8188
8110
8182
8126
8141
8174
8095
8216
8060
8243
8045
8243
8058
8213
8098
8175
8134
8133
8155
8120
8168
8124
8156
8153
8124
8196
8098
8234
8076
8221
8085
8207
8114
8164
8159
8117
8207
8081
8221
8065
8208
8073
8191
8121
8165
8161
8130
8176
8132
8196
8173
8177
8207
8134
8235
8090
8266
8075
8267
8078
8237
8111
8188
8149
8148
8182
8115
8199
8112
8190
8136
8165
8167
8130
8185
8113
8221
8114
8195
8124
8161
8181
8116
8216
8079
8252
8062
8253
8070
8228
8108
8197
8147
8154
8188
8141
8188
8139
8168
8164
8131
8207
8107
8249
8089
8254
8092
8233
8118
8196
8167
8159
8204
8113
8230
8099
8244
8106
8213
8135
8163
8166
8144
8185
8129
8190
8142
8168
8181
8123
8218
8085
8258
8064
8268
8068
8237
8092
8200
8144
8167
8185
8133
8194
8118
8184
8135
8158
8153
8121
8184
8092
8205
8093
8195
8105
8167
8156
8117
8200
8084
8228
8063
8248
8071
8221
8090
8186
8134
8149
8160
8118
8159
8114
8155
8152
8124
8195
8095
8240
8084
8255
8083
8246
8107
8204
8147
8162
8206
8151
8239
8116
8240
8113
8208
8132
8168
8171
8140
8188
8125
8198
8131
8172
8164
8120
8196
8068
8218
8044
8240
8038
8216
8065
8189
8101
8156
8165
8126
8184
8121
8177
8134
8163
8171
8139
8230
8119
8251
8104
8221
8111
8188
8146
8149
8193
8101
8224
8078
8243
8072
8228
8095
8189
8128
8147
8159
8127
8160
8128
8157
8137
8123
8190
8087
8221
8064
8244
8059
8237
8079
8200
8117
8164
8169
8116
8192
8097
8210
8116
8204
8135
8154
8154
8117
8189
8110
8199
8123
8181
8155
8140
8199
8094
8236
8069
8253
8064
8254
8079
8207
8113
8163
8134
8117
8157
8121
8178
8141
8156
8167
8116
8198
8076
8217
8072
8216
8088
8201
8136
8165
8190
8137
8227
8093
8251
8091
8241
8116
8202
8135
8153
8169
8139
8183
8142
8190
8172
8146
8204
8107
8250
8081
8262
8071
8257
8082
8220
8115
8174
8154
8130
8182
8108
8189
8110
8181
8136
8161
8174
8127
8209
8114
8209
8112
8192
8153
8160
8203
8126
8246
8090
8278
8078
8262
8093
8221
8116
8179
8146
8142
8172
8127
8168
8132
8144
8155
8112
8195
8065
8222
8054
8213
8067
8197
8093
8153
8155
8112
8199
8079
8212
8082
8208
8097
8175
8125
8137
8147
8110
8165
8116
8179
8147
8159
8195
8111
8225
8073
8253
8055
8255
8066
8227
8110
8192
8154
8155
8186
8125
8196
8119
8180
8136
8150
8170
8120
8191
8092
8214
8096
8193
8124
8165
8171
8110
8217
8077
8239
8062
8242
8080
8226
8108
8182
8150
8158
8195
8150
8199
8153
8167
8180
8120
8218
8095
8249
8073
8258
8075
8223
8108
8193
8162
8144
8191
8098
8218
8100
8225
8111
8180
8145
8151
8166
8126
8204
8124
8196
8153
8171
8196
8149
8235
8095
8275
8076
8270
8077
8240
8098
8198
8134
8158
8169
8117
8165
8111
8160
8131
8132
8145
8087
8178
8073
8198
8070
8191
8103
8164
8159
8134
8201
8092
8262
8103
8273
8100
8243
8120
8199
8152
8162
8181
8138
8183
8140
8158
8172
8126
8212
8093
8251
8080
8264
8076
8237
8092
8193
8142
8158
8184
8115
8210
8103
8213
8116
8181
8150
8159
8177
8123
8210
8121
8205
8136
8181
8174
8147
8222
8096
8258
8076
8267
8078
8254
8091
8199
8125
8165
8164
8118
8175
8130
8173
8146
8138
8170
8110
8212
8093
8245
8091
8220
8103
8192
8148
8149
8189
8103
8221
8070
8234
8081
8226
8110
8191
8139
8148
8168
8121
8170
8125
8146
8142
8120
8195
8091
8252
8076
8273
8079
8266
8098
8229
8155
8189
8186
8134
8204
8107
8204
8120
8175
8147
8147
8174
8116
8200
8093
8196
8102
8179
8157
8146
8193
8095
8231
8070
8253
8063
8244
8083
8199
8116
8166
8147
8131
8163
8124
8168
8141
8147
8189
8117
8218
8085
8238
8071
8218
8079
8192
8116
8151
8164
8110
8207
8078
8212
8082
8221
8117
8175
8139
8147
8171
8129
8192
8122
8183
8161
8135
8187
8092
8223
8068
8262
8063
8255
8072
8221
8115
8186
8158
8138
8191
8114
8180
8114
8173
8149
8148
8195
8110
8208
8101
8222
8109
8205
8157
8166
8198
8111
8226
8077
8253
8070
8250
8096
8220
8123
8181
8156
8141
8181
8132
8167
8148
8155
8191
8116
8216
8083
8245
8069
8251
8083
8211
8104
8165
8155
8120
8198
8104
8216
8094
8207
8109
8168
8141
8132
8168
8119
8197
8115
8177
8131
8132
8177
8088
8205
8052
8243
8038
8243
8069
8223
8098
8184
8130
8132
8171
8116
8182
8127
8181
8159
8156
8212
8128
8254
8126
8269
8124
8231
8158
8193
8189
8123
8224
8093
8239
8080
8244
8085
8215
8122
8177
8152
8137
8172
8133
8173
8147
8169
8189
8120
8221
8092
8260
8079
8266
8081
8239
8116
8201
8154
8154
8188
8112
8214
8101
8187
8112
8169
8148
8139
8174
8116
8194
8116
8199
8144
8156
8175
8100
8212
8071
8248
8055
8251
8067
8224
8093
8194
8133
8161
8177
8139
8182
8135
8164
8152
8132
8189
8104
8228
8081
8226
8089
8225
8120
8193
8168
8144
8205
8102
8236
8092
8247
8104
8235
8131
8193
8165
8145
8175
8127
8168
8127
8144
8156
8107
8195
8068
8225
8052
8249
8058
8227
8079
8195
8130
8170
8194
8140
8224
8143
8252
8168
8226
8187
8152
8203
8114
8213
8109
8203
8122
8177
8168
8118
8203
8079
8229
8054
8246
8068
8225
8081
8185
8112
8139
8146
8113
8158
8109
8149
8127
8128
8176
8093
8217
8071
8242
8072
8216
8089
8184
8144
8154
8185
8104
8211
8089
8217
8083
8187
8099
8158
8144
8125
8162
8116
8173
8122
8148
8157
8120
8200
8085
8228
8057
8258
8056
8239
8085
8216
8120
8176
8179
8159
8217
8144
8229
8142
8176
8169
8142
8200
8111
8215
8095
8213
8111
8188
8155
8146
8198
8093
8220
8068
8245
8068
8240
8091
8203
8120
8152
8151
8129
8167
8136
8166
8146
8144
8188
8105
8225
8077
8254
8070
8242
8091
8219
8135
8164
8169
8112
8198
8082
8206
8090
8184
8113
8160
8143
8131
8171
8113
8182
8109
8169
8163
8153
8210
8105
8243
8074
8267
8064
8259
8074
8208
8098
8167
8137
8135
8184
8116
8176
8131
8158
8149
8119
8179
8099
8228
8090
8224
8100
8198
8142
8170
8184
8106
8206
8069
8231
8077
8239
8096
8210
8129
8160
8153
8135
8175
8136
8190
8161
8163
8201
8118
8231
8086
8261
8070
8259
8087
8230
8135
8191
8169
8149
8208
8112
8220
8114
8208
8136
8173
8163
8138
8190
8112
8190
8103
8180
8122
8144
8184
8101
8222
8073
8262
8071
8263
8081
8224
8114
8193
8146
8150
8181
8128
8179
8127
8160
8160
8134
8203
8099
8249
8097
8258
8097
8218
8118
8173
8171
8135
8213
8094
8228
8083
8238
8097
8203
8123
8156
8150
8123
8173
8128
8178
8140
8161
8187
8122
8226
8086
8268
8079
8275
8080
8243
8116
8210
8162
8158
8185
8116
8194
8110
8191
8126
8156
8158
8122
8183
8112
8217
8112
8197
8134
8187
8196
8141
8232
8091
8247
8065
8261
8073
8227
8104
8199
8141
8149
8180
8125
8171
8122
8152
8152
8124
8196
8093
8233
8066
8227
8072
8211
8096
8175
8140
8117
8174
8083
8200
8069
8205
8085
8177
8116
8150
8147
8119
8173
8117
8188
8139
8171
8186
8130
8235
8106
8266
8076
8270
8068
8236
8088
8196
8127
8158
8171
8120
8192
8109
8178
8129
8163
8166
8127
8207
8105
8221
8104
8219
8129
8184
8162
8119
8192
8074
8222
8054
8247
8070
8222
8099
8195
8143
8151
8163
8130
8176
8138
8166
8163
8139
8207
8104
8251
8090
8268
8079
8245
8102
8204
8145
8158
8192
8119
8231
8115
8236
8114
8191
8131
8166
8175
8149
8226
8135
8217
