EMG
7903
8089
7917
8046
7936
7986
7986
7925
8031
7886
8054
7867
8047
7897
8003
7935
7959
7977
7921
8001
7920
7991
7939
7947
7985
7903
8032
7869
8069
7842
8063
7852
8032
7900
7984
7957
7946
8019
7927
8049
7941
8037
7971
8008
8027
7971
8071
7956
8091
7961
8068
7988
8018
8031
7944
8071
7890
8091
7883
8090
7900
8060
7933
8006
7974
7961
8002
7932
8009
7949
7990
7977
7941
8034
7906
8072
7880
8073
7884
8042
7919
7992
7971
7945
8028
7911
8071
7919
8089
7958
8067
7998
8016
8038
7974
8065
7977
8068
8012
8041
8054
7981
8096
7925
8114
7882
8100
7883
8080
7923
8030
7976
7979
8012
7941
8038
7936
8022
7960
7986
8004
7944
8041
7910
8058
7910
8047
7944
8006
7991
7952
8047
7898
8086
7888
8090
7911
8080
7958
8044
8012
8004
8051
7989
8056
8000
8048
8047
8017
8092
7961
8124
7931
8130
7914
8091
7935
8039
7984
7978
8032
7936
8063
7915
8049
7924
8024
7967
7985
8012
7948
8036
7934
8035
7953
8006
8002
7964
8069
7916
8099
7878
8104
7883
8096
7923
8055
7981
8013
8041
7989
8071
7978
8062
8000
8020
8037
7978
8101
7961
8126
7952
8105
7967
8058
8011
7992
8052
7930
8089
7903
8089
7902
8060
7929
8016
7969
7970
8009
7949
8021
7961
8010
7990
7968
8040
7922
8087
7895
8118
7906
8103
7916
8041
7960
7991
8027
7966
8081
7969
8096
7985
8072
8013
8027
8060
7991
8092
7982
8098
7990
8053
8026
7998
8063
7925
8094
7884
8111
7884
8094
7913
8049
7953
7996
7998
7959
8029
7953
8026
7970
7994
8014
7951
8058
7911
8090
7909
8093
7933
8050
7975
7995
8035
7956
8083
7934
8114
7950
8117
7991
8075
8035
8034
8072
8002
8087
8011
8073
8040
8031
8081
7966
8122
7921
8129
7897
8104
7910
8064
7958
8008
8011
7959
8034
7924
8042
7942
8018
7975
7980
8020
7950
8057
7928
8063
7946
8036
7991
7995
8047
7940
8097
7906
8122
7908
8125
7945
8093
8011
8057
8056
8016
8081
8010
8083
8029
8046
8071
8005
8111
7950
8123
7921
8109
7927
8060
7959
8009
8013
7958
8063
7919
8081
7913
8060
7939
8028
7989
7984
8033
7962
8043
7957
8029
7988
7997
8041
7948
8086
7899
8112
7882
8119
7921
8091
7964
8049
8037
8015
8085
7995
8100
8005
8085
8037
8039
8082
8000
8118
7974
8112
7971
8081
7994
8019
8038
7947
8076
7900
8092
7891
8098
7915
8060
7951
8012
8001
7971
8030
7958
8035
7985
7999
8018
7955
8069
7924
8118
7914
8111
7923
8088
7964
8046
8036
8001
8090
7977
8125
7975
8115
8006
8083
8050
8043
8085
8014
8117
8015
8098
8028
8035
8054
7971
8091
7920
8107
7894
8118
7898
8076
7926
8018
7975
7973
8027
7953
8043
7959
8026
7993
7994
8040
7961
8083
7940
8099
7936
8075
7973
8030
8027
7979
8083
7941
8123
7940
8139
7970
8121
8017
8078
8062
8039
8094
8016
8094
8036
8072
8069
8003
8102
7948
8123
7911
8122
7898
8091
7939
8040
7992
7982
8036
7948
8066
7931
8061
7963
8037
8003
7987
8044
7956
8063
7950
8051
7973
8018
8027
7964
8071
7925
8124
7909
8141
7926
8131
7985
8101
8047
8063
8097
8032
8104
8024
8090
8049
8042
8091
7989
8116
7951
8117
7937
8090
7958
8032
7996
7979
8051
7934
8088
7907
8089
7920
8061
7956
8020
8004
7985
8045
7967
8044
7980
8024
8026
7985
8087
7941
8124
7906
8143
7916
8130
7962
8082
8031
8048
8088
8018
8119
7999
8112
8010
8083
8064
8040
8103
8009
8124
7987
8103
7997
8048
8020
7980
8065
7923
8104
7898
8112
7895
8087
7930
8045
7974
7995
8018
7969
8043
7967
8035
7993
7995
8050
7958
8094
7928
8128
7938
8113
7958
8076
8018
8035
8079
7993
8133
7985
8152
7990
8126
8025
8082
8064
8044
8104
8019
8113
8025
8074
8052
8014
8093
7953
8118
7906
8122
7894
8107
7918
8057
7968
8004
8019
7966
8046
7950
8056
7975
8035
8015
7985
8046
7949
8082
7947
8095
7974
8067
8022
8015
8077
7968
8129
7941
8161
7953
8158
7998
8119
8042
8077
8084
8028
8094
8020
8082
8060
8061
8093
7991
8116
7937
8127
7910
8104
7922
8067
7970
8009
8028
7959
8072
7938
8088
7935
8066
7966
8025
8011
7990
8057
7970
8068
7975
8049
8005
8008
8067
7948
8115
7917
8144
7929
8155
7962
8129
8024
8096
8084
8063
8123
8035
8113
8025
8082
8067
8043
8111
7995
8128
7964
8114
7962
8073
7990
8008
8036
7952
8090
7920
8106
7908
8095
7932
8060
7977
8015
8028
7982
8056
7984
8053
8006
8013
8052
7971
8107
7930
8137
7912
8130
7942
8112
8000
8069
8068
8033
8131
8024
8153
8017
8129
8037
8089
8078
8037
8111
8010
8121
8006
8088
8015
8019
8058
7963
8096
7918
8129
7906
8126
7921
8094
7962
8040
8007
7986
8036
7970
8063
7992
8042
8030
8004
8076
7969
8114
7943
8128
7959
8097
7994
8053
8055
8008
8107
7974
8150
7972
8154
7994
8124
8031
8074
8081
8041
8113
8035
8110
8046
8057
8078
8000
8112
7941
8128
7904
8128
7912
8100
7953
8041
8002
7991
8048
7961
8078
7967
8071
7992
8037
8035
7996
8068
7962
8093
7972
8087
8005
8045
8049
7985
8106
7945
8153
7932
8171
7967
8163
8018
8105
8059
8057
8101
8035
8110
8040
8091
8086
8040
8114
7988
8137
7943
8124
7931
8088
7970
8044
8017
7994
8071
7954
8097
7925
8091
7945
8068
7983
8021
8036
7992
8065
7982
8069
8011
8046
8055
7994
8098
7944
8140
7917
8153
7943
8152
7997
8126
8061
8076
8113
8040
8135
8027
8126
8045
8081
8087
8041
8122
7996
8127
7979
8100
7987
8046
8024
7987
8078
7938
8129
7916
8132
7928
8106
7957
8054
8005
8010
8047
7990
8064
7988
8042
8025
8008
8083
7973
8133
7949
8149
7942
8125
7973
8095
8037
8059
8125
8027
8169
8018
8167
8023
8130
8058
8087
8094
8043
8118
8025
8117
8028
8070
8058
8004
8084
7935
8123
7912
8137
7910
8121
7946
8065
7991
8019
8033
7981
8065
7969
8054
7992
8028
8035
7991
8084
7960
8119
7963
8112
7986
8077
8035
8030
8103
7986
8167
7972
8179
7987
8168
8028
8126
8069
8077
8113
8046
8117
8054
8106
8065
8044
8095
7977
8120
7928
8134
7920
8122
7946
8082
7999
8024
8046
7976
8086
7953
8087
7963
8066
7989
8023
8043
7993
8080
7981
8093
7998
8070
8043
8024
8091
7968
8141
7947
8179
7961
8184
8001
8154
8051
8102
8103
8058
8119
8041
8116
8059
8088
8094
8034
8127
7987
8142
7954
8124
7964
8076
8001
8016
8054
7963
8099
7935
8120
7936
8103
7967
8067
8014
8031
8053
7992
8068
7993
8055
8026
8018
8077
7972
8128
7941
8151
7933
8169
7976
8151
8043
8098
8103
8061
8153
8026
8147
8027
8121
8066
8087
8104
8042
8135
8011
8133
8007
8082
8021
8021
8062
7954
8107
7927
8142
7913
8129
7937
8092
7978
8040
8030
8005
8064
7999
8075
8011
8049
8060
8009
8112
7969
8135
7947
8138
7968
8130
8025
8076
8084
8034
8157
8012
8186
8008
8165
8026
8119
8073
8085
8108
8043
8124
8033
8104
8045
8042
8075
7977
8112
7931
8133
7907
8138
7929
8099
7971
8051
8022
7996
8070
7976
8088
7980
8064
8013
8031
8065
7996
8096
7973
8119
7984
8101
8022
8052
8081
8012
8150
7981
8200
7980
8206
8003
8168
8045
8111
8088
8070
8121
8048
8122
8065
8094
8094
8032
8121
7971
8136
7936
8131
7935
8099
7981
8054
8031
8001
8082
7963
8110
7948
8101
7975
8074
8015
8021
8057
7994
8084
7997
8092
8034
8050
8070
8006
8131
7963
8184
7951
8191
7980
8185
8030
8147
8092
8085
8121
8048
8134
8045
8123
8075
8081
8112
8024
8130
7986
8130
7973
8105
7994
8048
8034
7988
8090
7946
8125
7929
8131
7943
8099
7982
8063
8036
8022
8071
7996
8070
8017
8062
8059
8024
8120
7976
8151
7946
8163
7961
8170
8010
8129
8071
8080
8155
8050
8175
8019
8154
8041
8128
8071
8091
8126
8048
8135
8022
8121
8023
8055
8050
7998
8104
7946
8129
7918
8145
7925
8126
7968
8083
8019
8040
8063
8006
8085
8001
8068
8022
8032
8068
7992
8120
7984
8149
7978
8148
8009
8113
8069
8049
8141
8020
8177
7995
8207
8014
8170
8048
8128
8095
8087
8129
8059
8130
8056
8085
8072
8030
8106
7963
8137
7934
8151
7934
8132
7955
8079
8006
8027
8053
7984
8088
7970
8097
7996
8070
8034
8031
8072
7992
8106
7989
8112
8007
8076
8053
8026
8125
7997
8175
7977
8209
7985
8203
8022
8164
8070
8100
8109
8063
8129
8052
8124
8075
8074
8095
8015
8126
7964
8135
7939
8120
7962
8085
8019
8028
8073
7978
8106
7952
8126
7954
8095
7979
8055
8025
8017
8069
8000
8087
8014
8075
8058
8036
8109
7986
8151
7961
8188
7957
8189
8002
8170
8066
8124
8117
8070
8159
8044
8148
8056
8129
8091
8079
8122
8023
8132
7987
8112
7985
8071
8019
8019
8071
7970
8117
7936
8141
7932
8133
7951
8097
8004
8050
8053
8021
8079
8007
8079
8030
8053
8081
8011
8127
7970
8150
7956
8171
7991
8151
8044
8110
8122
8059
8175
8031
8188
8031
8163
8053
8126
8100
8081
8133
8050
8137
8029
8096
8042
8034
8087
7980
8128
7940
8155
7927
8151
7945
8118
7986
8054
8040
8017
8082
7991
8088
8001
8067
8043
8038
8096
7999
8131
7978
8137
7988
8114
8031
8080
8110
8029
8176
8002
8209
8007
8206
8024
8171
8061
8110
8105
8074
8131
8062
8119
8060
8072
8089
8010
8122
7959
8145
7936
8146
7947
8114
7988
8066
8048
8016
8091
7982
8112
7975
8100
8000
8071
8045
8032
8094
8009
8114
8010
8116
8038
8066
8087
8009
8155
7987
8204
7981
8221
8009
8200
8057
8149
8099
8088
8134
8063
8151
8072
8128
8101
8077
8121
8012
8140
7972
8135
7955
8100
7994
8058
8049
8001
8098
7959
8133
7944
8134
7970
8108
8009
8060
8054
8023
8087
8013
8088
8036
8066
8086
8023
8132
7976
8176
7965
8204
7978
8190
8036
8149
8099
8094
8153
8051
8167
8034
8152
8059
8126
8097
8076
8133
8032
8143
8009
8112
8020
8064
8056
8001
8107
7954
8149
7928
8149
7935
8118
7970
8081
8029
8036
8069
8007
8089
8017
8077
8056
8049
8110
8011
8145
7969
8159
7976
8157
8025
8120
8085
8081
8164
8049
8204
8019
8184
8028
8153
8062
8114
8100
8067
8132
8030
8110
8042
8082
8072
8018
8106
7962
8150
7937
8166
7940
8153
7972
8096
8018
8042
8073
8008
8106
7997
8104
8016
8068
8059
8040
8113
8001
8136
7997
8131
8022
8102
8082
8057
8146
8021
8209
7999
8234
8015
8202
8046
8164
8085
8099
8124
8086
8147
8068
8118
8075
8059
8102
7988
8126
7944
8142
7943
8127
7974
8088
8019
8040
8081
7990
8124
7977
8128
7981
8104
8020
8070
8062
8028
8101
8014
8113
8038
8089
8073
8045
8141
7995
8193
7978
8228
7990
8220
8034
8183
8075
8119
8122
8072
8153
8054
8150
8076
8114
8104
8057
8129
8006
8141
7982
8129
7992
8086
8032
8031
8091
7986
8143
7949
8148
7951
8141
7989
8104
8032
8062
8070
8026
8098
8027
8088
8051
8055
8112
8013
8152
7975
8181
7975
8197
8010
8172
8069
8124
8137
8072
8178
8028
8168
8031
8143
8061
8117
8112
8070
8131
8032
8126
8019
8094
8042
8034
8097
7984
8147
7943
8164
7933
8161
7959
8112
8010
8070
8056
8031
8087
8014
8101
8036
8079
8075
8045
8124
8007
8157
7995
8173
8012
8148
8061
8104
8135
8051
8199
8027
8213
8017
8189
8037
8149
8084
8108
8124
8074
8136
8052
8113
8068
8066
8097
8002
8135
7962
8164
7950
8176
7967
8138
8002
8069
8053
8011
8096
7989
8116
7996
8103
8024
8063
8079
8031
8119
8013
8135
8018
8120
8058
8081
8128
8041
8184
7999
8215
7992
8238
8015
8197
8054
8124
8094
8083
8128
8059
8135
8066
8104
8098
8051
8119
7990
8149
7967
8153
7971
8132
8016
8073
8068
8011
8111
7969
8135
7965
8137
7991
8109
8040
8056
8079
8030
8105
8029
8106
8055
8065
8095
8016
8157
7988
8203
7968
8221
8005
8207
8059
8157
8107
8087
8156
8047
8161
8057
8153
8080
8110
8114
8050
8131
8008
8134
7997
8104
8025
8063
8078
8016
8137
7964
8168
7946
8157
7960
8129
8006
8098
8052
8046
8096
8030
8092
8039
8087
8084
8045
8131
7999
8166
7977
8186
7994
8175
8040
8138
8114
8083
8172
8043
8199
8028
8188
8052
8153
8083
8105
8128
8068
8132
8039
8113
8038
8066
8079
8012
8129
7974
8174
7944
8173
7950
8157
7992
8103
8050
8056
8091
8013
8104
8009
8106
8049
8079
8101
8047
8135
8006
8144
7992
8131
8024
8116
8092
8060
8171
8025
8213
8011
8232
8020
8198
8050
8142
8102
8098
8135
8072
8138
8067
8103
8079
8045
8113
7988
8152
7962
8172
7959
8151
7989
8099
8033
8050
8098
8000
8128
7990
8129
8004
8111
8049
8068
8090
8034
8124
8024
8124
8038
8095
8087
8054
8157
8005
8210
7995
8238
8008
8219
8040
8170
8086
8115
8128
8078
8152
8060
8137
8083
8101
8110
8042
8139
7998
8149
7977
8136
7996
8094
8050
8046
8113
7990
8148
7965
8161
7972
8139
8010
8099
8058
8063
8098
8035
8109
8045
8099
8077
8051
8118
8010
8180
7985
8221
7992
8213
8029
8179
8082
8122
8143
8066
8176
8047
8173
8053
8140
8088
8103
8125
8054
8137
8018
8133
8022
8090
8061
8042
8108
7992
8167
7953
8174
7948
8157
7980
8120
8031
8072
8078
8038
8108
8029
8105
8051
8072
8097
8033
8142
7994
8160
7979
8177
8017
8152
8079
8121
8158
8062
8198
8029
8214
8024
8180
8049
8146
8101
8101
8137
8061
8141
8059
8106
8065
8049
8102
7995
8143
7959
8177
7953
8185
7980
8145
8024
8077
8068
8031
8106
8000
8116
8022
8102
8051
8064
8097
8036
8145
8018
8150
8019
8130
8065
8083
8140
8044
8202
8016
8233
8012
8239
8030
8181
8070
8120
8101
8082
8149
8061
8134
8074
8090
8100
8031
8136
7981
8156
7964
8167
7986
8139
8022
8074
8080
8022
8135
7992
8149
7992
8138
8016
8102
8059
8067
8112
8037
8127
8040
8119
8058
8065
8113
8026
8185
7990
8223
7990
8229
8014
8202
8057
8147
8098
8084
8156
8056
8161
8064
8134
8087
8082
8121
8031
8140
7990
8147
7998
8118
8033
8074
8082
8015
8150
7974
8175
7961
8165
7984
8138
8023
8090
8075
8045
8107
8036
8116
8062
8092
8099
8045
8149
7999
8198
7992
8210
8007
8189
8056
8152
8125
8092
8177
8050
8200
8044
8174
8061
8148
8100
8084
8126
8052
8133
8023
8115
8040
8072
8092
8009
8151
7973
8183
7953
8177
7965
8160
8010
8106
8064
8066
8106
8036
8120
8032
8101
8068
8075
8117
8027
8154
7994
8181
8017
8174
8046
8130
8121
8076
8187
8048
8230
8029
8237
8038
8192
8068
8137
8117
8092
8136
8062
8134
8063
8083
8081
8024
8124
7985
8164
7959
8183
7964
8153
7996
8100
8049
8054
8108
8013
8136
8007
8129
8023
8106
8073
8072
8118
8035
8147
8028
8135
8051
8107
8124
8060
8176
8020
8226
8003
8251
8017
8214
8053
8162
8093
8108
8134
8081
8152
8073
8126
8080
8073
8116
8016
8138
7980
8157
7975
8156
8011
8108
8066
8050
8129
7998
8162
7976
8159
7992
8139
8034
8097
8071
8058
8119
8048
8127
8058
8101
8093
8047
8156
8011
8201
7992
8243
8005
8223
8045
8185
8096
8125
8149
8074
8176
8053
8170
8070
8130
8091
8073
8126
8027
8139
8008
8124
8021
8095
8073
8040
8128
7983
8170
7962
8180
7971
8176
8002
8117
8052
8074
8095
8038
8117
8049
8106
8078
8076
8119
8029
8164
8000
8202
8004
8205
8045
8172
8108
8126
8164
8064
8200
8036
8207
8043
8192
8079
8137
8112
8083
8131
8043
8126
8040
8096
8066
8038
8123
7999
8176
7965
8188
7956
8176
7976
8141
8034
8084
8091
8041
8123
8015
8121
8040
8105
8086
8068
8133
8027
8164
8014
8165
8038
8139
8088
8091
8166
8051
8215
8019
8242
8017
8217
8044
8184
8088
8120
8130
8086
8143
8065
8119
8075
8072
8116
8023
8151
7980
8174
7964
8172
7984
8136
8033
8076
8092
8027
8141
7998
8146
8002
8124
8032
8094
8089
8064
8130
8047
8144
8047
8118
8082
8076
8152
8030
8204
7999
8253
8012
8237
8033
8199
8074
8143
8138
8089
8156
8076
8161
8076
8123
8101
8069
8123
8010
8141
7987
8144
8002
8128
8048
8075
8117
8027
8162
7980
8180
7974
8159
8009
8135
8047
8087
8091
8055
8121
8048
8111
8075
8080
8119
8038
8179
8010
8230
8004
8229
8028
8201
8081
8156
8144
8090
8179
8048
8190
8059
8177
8076
8123
8108
8072
8134
8034
8138
8019
8108
8051
8069
8106
8011
8160
7969
8191
7959
8188
7987
8159
8031
8103
8075
8061
8115
8037
8126
8053
8103
8095
8066
8139
8017
8172
8007
8199
8027
8186
8079
8137
8140
8083
8202
8039
8222
8029
8223
8048
8184
8095
8127
8126
8071
8131
8052
8116
8059
8070
8096
8020
8143
7978
8172
7957
8189
7974
8156
8018
8116
8073
8050
8114
8017
8131
8018
8134
8053
8095
8098
8061
8143
8027
8146
8030
8148
8077
8107
8148
8074
8207
8036
8245
8016
8253
8029
8214
8069
8163
8118
8111
8149
8073
8146
8079
8114
8095
8054
8136
8005
8159
7972
8160
7977
8150
8020
8099
8067
8039
8130
8001
8164
7992
8154
8005
8128
8050
8092
8098
8055
8133
8048
8134
8066
8096
8114
8061
8181
8025
8230
8013
8261
8027
8228
8057
8173
8108
8115
8159
8077
8191
8071
8163
8085
8120
8112
8054
8134
8015
8141
8003
8142
8034
8093
8083
8036
8145
7987
8180
7974
8180
7985
8164
8020
8119
8074
8073
8120
8057
8137
8071
8110
8088
8062
8138
8024
8199
8004
8226
8019
8218
8068
8182
8128
8122
8178
8064
8204
8040
8203
8062
8165
8089
8113
8129
8066
8135
8036
8129
8048
8096
8087
8042
8142
7989
8187
7964
8190
7964
8172
8003
8139
8051
8072
8095
8044
8130
8036
8128
8058
8096
8107
8058
8159
8026
8189
8023
8187
8061
8158
8129
8116
8193
8061
8232
8030
8241
8033
8210
8061
8172
8111
8113
8137
8078
8142
8063
8106
8083
8047
8121
8008
8165
7973
8184
7973
8171
8000
8133
8050
8068
8106
8024
8144
8009
8155
8025
8133
8072
8095
8118
8061
8148
8039
8145
8046
8117
8103
8076
8175
8035
8225
8017
8267
8017
8230
8050
8183
8087
8124
8136
8083
8154
8062
8136
8078
8094
8104
8039
8141
8001
8164
7990
8165
8012
8130
8057
8067
8135
8024
8174
7992
8195
7998
8169
8025
8117
8070
8073
8114
8052
8128
8056
8114
8089
8078
8158
8042
8208
8012
8254
8018
8234
8053
8199
8093
8146
8158
8087
8189
8063
8193
8062
8147
8094
8105
8121
8050
8140
8023
8135
8034
8112
8073
8062
8131
8007
8171
7965
8195
7969
8191
8003
8153
8052
8096
8097
8061
8129
8050
8126
8072
8103
8116
8048
8162
8028
8208
8013
8203
8038
8177
8094
8129
8167
8078
8213
8039
8220
8039
8207
8073
8154
8104
8104
8128
8055
8133
8044
8099
8069
8058
8111
8008
8168
7972
8188
7961
8186
7986
8159
8031
8095
8085
8054
8126
8033
8141
8037
8125
8075
8088
8119
8045
8153
8022
8176
8049
8161
8097
8122
8171
8065
8216
8027
8248
8019
8244
8046
8202
8094
8156
8132
8093
8144
8068
8134
8069
8096
8105
8042
8145
7994
8181
7979
8190
7999
8157
8035
8102
8091
8040
8160
8021
8181
8010
8157
8038
8116
8079
8085
8128
8063
8143
8053
8133
8079
8094
8141
8049
8199
8015
8263
8026
8265
8038
8219
8072
8169
8135
8102
8175
8074
8162
8066
8139
8082
8078
8116
8035
8149
8011
8154
8006
8138
8044
8078
8097
8028
8156
7994
8195
7977
8184
8004
8151
8047
8109
8097
8072
8124
8060
8137
8074
8101
8121
8063
8184
8022
8232
8018
8237
8041
8221
8082
8168
8135
8100
8188
8063
8208
8049
8204
8072
8144
8101
8088
8127
8044
8138
8028
8122
8060
8085
8105
8029
8163
7984
8192
7962
8200
7987
8175
8030
8120
8082
8076
8121
8049
8143
8056
8130
8094
8081
8125
8041
8170
8025
8199
8039
8194
8079
8158
8157
8099
8204
8047
8229
8025
8236
8047
8202
8086
8140
8124
8089
8139
8064
8129
8056
8087
8096
8053
8165
8000
8190
7972
8196
7981
8173
8018
8127
8065
8069
8133
8030
8149
8013
8147
8045
8122
8095
8084
8136
8040
8151
8038
8161
8076
8127
8143
8072
8208
8048
8243
8015
8257
8020
8221
8060
8182
8113
8119
8160
8081
8154
8066
8124
8078
8073
8118
8022
8152
7990
8182
7994
8161
8028
8118
8070
8056
8142
8014
8178
7992
8175
8003
8153
8043
8113
8101
8081
8134
8063
8143
8073
8111
8118
8081
8180
8038
8247
8023
8265
8028
8228
8051
8186
8108
8131
8170
8085
8195
8072
8176
8068
8129
8098
8076
8135
8032
8146
8017
8138
8041
8107
8088
8051
8146
7999
8190
7976
8207
7982
8185
8021
8127
8068
8086
8109
8056
8130
8065
8125
8090
8087
8139
8046
8199
8018
8224
8031
8223
8070
8191
8131
8130
8182
8074
8222
8050
8233
8058
8198
8083
8130
8112
8079
8136
8047
8127
8048
8102
8085
8058
8141
8003
8186
7970
8194
7975
8195
8003
8154
8052
8098
8104
8051
8140
8042
8148
8063
8122
8094
8075
8143
8045
8176
8039
8189
8075
8177
8131
8126
8193
8068
8231
8027
8254
8026
8226
8060
8189
8097
8123
8132
8084
8144
8066
8123
8076
8067
8121
8025
8177
7988
8199
7980
8180
7997
8144
8049
8089
8117
8040
8160
8011
8161
8019
8149
8057
8110
8103
8078
8141
8052
8152
8058
8145
8105
8101
8177
8057
8236
8033
8272
8022
8258
8044
8207
8089
8150
8146
8101
8169
8063
8154
8067
8109
8093
8058
8132
8019
8159
8006
8172
8018
8140
8059
8083
8122
8027
8167
7996
8194
7985
8175
8021
8145
8062
8102
8117
8078
8138
8060
8128
8095
8101
8159
8063
8209
8036
8250
8025
8247
8052
8209
8084
8150
8152
8099
8196
8074
8214
8060
8170
8083
8126
8115
8073
8136
8029
8133
8029
8124
8071
8076
8130
8027
8180
7990
8210
7976
8209
7992
8171
8050
8123
8095
8071
8133
8058
8145
8075
8118
8105
8068
8151
8032
8185
8023
8212
8050
8205
8114
8155
8165
8092
8216
8047
8236
8039
8234
8061
8184
8096
8120
8122
8080
8133
8058
8120
8071
8084
8112
8034
8170
7990
8201
7971
8210
7996
8176
8034
8120
8089
8073
8145
8037
8158
8044
8143
8074
8113
8115
8071
8151
8051
8186
8058
8175
8100
8142
8168
8089
8218
8037
8256
8025
8251
8039
8218
8083
8166
8122
8102
8143
8071
8139
8061
8105
8087
8056
8136
8003
8161
7981
8188
7996
8155
8034
8110
8090
8056
8155
8020
8190
8006
8173
8032
8146
8072
8096
8107
8067
8135
8058
8142
8086
8125
8152
8078
8209
8042
8264
8025
8274
8032
8225
8065
8182
8136
8114
8169
8078
8184
8065
8153
8082
8104
8108
8052
8146
8026
8153
8020
8145
8046
8099
8095
8043
8157
8000
8202
7981
8195
7995
8176
8037
8128
8089
8090
8135
8075
8142
8072
8113
8107
8082
8174
8039
8237
8032
8250
8047
8226
8079
8182
8137
8123
8188
8068
8216
8056
8225
8063
8156
8088
8113
8119
8057
8132
8038
8131
8066
8099
8101
8045
8162
7995
8193
7973
8208
7979
8196
8020
8144
8071
8088
8119
8053
8146
8056
8149
8087
8112
8121
8065
8167
8041
8200
8054
8202
8081
8173
8147
8116
8201
8061
8244
8033
8254
8042
8226
8080
8168
8114
8110
8142
8075
8141
8067
8109
8090
8058
8142
8004
8172
7974
8193
7984
8186
8021
8145
8078
8090
8131
8043
8169
8016
8163
8039
8145
8083
8106
8126
8060
8155
8051
8167
8080
8153
8139
8102
8207
8059
8250
8032
8268
8028
8240
8052
8195
8103
8143
8157
8087
8159
8067
8141
8066
8088
8105
8043
8148
8009
8168
8003
8174
8029
8137
8075
8069
8138
8023
8187
7997
8200
7997
8169
8041
8135
8088
8091
8130
8072
8137
8070
8132
8116
8092
8181
8063
8234
8038
8269
8033
8245
8048
8198
8101
8152
8163
8092
8203
8067
8195
8068
8151
8091
8093
8117
8055
8153
8032
8150
8050
8132
8082
8066
8135
8009
8186
7980
8209
7983
8203
8011
8169
8060
8113
8114
8072
8141
8063
8132
8077
8106
8123
8069
8192
8043
8234
8043
8234
8071
8205
8121
8153
8171
8082
8221
8055
8233
8052
8213
8069
8154
8099
8095
8129
8054
8132
8049
8112
8081
8073
8125
8022
8187
7981
8221
7973
8205
8009
8179
8048
8120
8105
8061
8143
8048
8157
8057
8137
8088
8101
8134
8068
8180
8057
8198
8075
8180
8126
8145
8187
8082
8234
8040
8262
8026
8251
8050
8205
8090
8137
8125
8092
8149
8068
8133
8071
8097
8112
8049
8156
8011
8187
7990
8188
8004
8164
8051
8113
8115
8048
8168
8025
8186
8019
8177
8057
8142
8101
8092
8130
8058
8153
8068
8162
8109
8138
8173
8078
8234
8040
8274
8027
8271
8038
8222
8080
8178
8141
8105
8169
8075
8167
8064
8128
8077
8084
8122
8043
8156
8018
8172
8021
8148
8055
8098
8115
8046
8178
8004
8205
7992
8204
8004
8173
8054
8121
8104
8083
8132
8066
8135
8084
8118
8134
8079
8204
8053
8253
8037
8262
8045
8229
8083
8173
8144
8120
8196
8074
8215
8055
8188
8066
8141
8093
8081
8116
8044
8140
8038
8132
8074
8096
8127
8042
8168
7998
8206
7979
8211
7991
8187
8036
8143
8087
8091
8135
8072
8160
8073
8140
8094
8102
8144
8063
8180
8052
8227
8065
8218
8096
8172
8155
8119
8206
8059
8245
8047
8250
8048
8204
8078
8138
8113
8088
8132
8061
8129
8066
8101
8110
8054
8162
8010
8198
7982
8207
7990
8192
8035
8142
8091
8088
8143
8051
8172
8036
8165
8065
8137
8098
8092
8140
8064
8186
8057
8181
8097
8155
8166
8101
8214
8056
8252
8029
8270
8029
8234
8073
8192
8114
8118
8145
8077
8143
8064
8122
8083
8081
8125
8042
8173
8010
8192
8006
8184
8035
8134
8084
8079
8150
8025
8190
8007
8200
8020
8171
8065
8130
8106
8082
8142
8065
8153
8090
8135
8134
8103
8206
8060
8260
8037
8270
8023
8241
8062
8207
8124
8147
8171
8090
8184
8062
8160
8066
8122
8091
8074
8131
8031
8149
8019
8159
8037
8127
8086
8061
8158
8013
8192
7987
8208
7994
8195
8025
8153
8075
8102
8123
8076
8145
8072
8134
8101
8112
8164
8069
8214
8040
8255
8046
8242
8071
8202
8128
8147
8188
8089
8224
8058
8224
8051
8195
8077
8132
8102
8076
8129
8049
8138
8058
8115
8094
8064
8150
8011
8191
7978
8227
7981
8204
8015
8178
8065
8112
8114
8066
8152
8054
8161
8077
8135
8116
8095
8163
8068
8200
8056
8212
8081
8190
8139
8140
8189
8076
8234
8036
8254
8036
8245
8059
8191
8095
8123
8127
8081
8135
8055
8119
8083
8080
8122
8035
8170
8000
8204
7983
8197
8009
8163
8052
8112
8124
8060
8170
8040
8188
8036
8166
8067
8130
8116
8087
8147
8066
8183
8077
8168
8133
8137
8198
8083
8242
8035
8266
8018
8268
8042
8216
8095
8168
8143
8106
8166
8071
8140
8068
8116
8101
8073
8136
8031
8173
8012
8185
8017
8160
8073
8111
8137
8050
8182
8017
8209
8006
8204
8027
8156
8075
8116
8117
8077
8133
8066
8141
8101
8117
8166
8086
8229
8050
8270
8039
8266
8040
8223
8088
8174
8160
8116
8186
8069
8196
8055
8167
8070
8120
8100
8066
8134
8034
8149
8030
8145
8072
8092
8126
8039
8182
7993
8216
7986
8234
8009
8190
8054
8149
8108
8098
8142
8063
8145
8077
8128
8116
8104
8179
8067
8236
8052
8264
8067
8222
8095
8171
8159
8114
8205
8065
8237
8048
8237
8057
8186
8083
8120
8120
8076
8139
8057
8134
8077
8097
8102
8042
8168
8003
8213
7980
8217
7997
8198
8039
8147
8082
8090
8151
8060
8180
8057
8162
8079
8123
8119
8088
8171
8060
8202
8063
8202
8111
8166
8159
8100
8214
8050
8250
8032
8264
8043
8228
8067
8172
8111
8109
8134
8067
8135
8058
8116
8100
8073
8137
8027
8176
7998
8199
7998
8183
8040
8147
8080
8081
8152
8031
8190
8020
8199
8035
8164
8071
8116
8118
8083
8149
8070
8160
8097
8160
8162
8113
8219
8064
8263
8029
8274
8031
8246
8059
8205
8124
8144
8159
8082
8172
8053
8144
8066
8104
8107
8061
8143
8027
8171
8020
8170
8041
8131
8090
8075
8158
8023
8203
7995
8213
8004
8197
8046
8161
8099
8114
8139
8087
8152
8084
8138
8124
8114
8189
8076
8248
8052
8274
8047
8243
8066
8200
8124
8150
8186
8094
8215
8056
8210
8052
8161
8075
8105
8103
8062
8133
8042
8148
8055
8115
8095
8068
8155
8016
8195
7993
8232
7991
8213
8013
8173
8073
8123
8122
8083
8155
8066
8148
8086
8133
8134
8093
8191
8067
8243
8065
8239
8087
8204
8133
8145
8187
8084
8228
8043
8253
8043
8219
8055
8171
8092
8105
8119
8060
8138
8059
8122
8087
8079
8128
8027
8183
7992
8218
7985
8208
8009
8174
8061
8126
8121
8067
8165
8051
8185
8049
8155
8085
8116
8128
8086
8176
8068
8202
8086
8189
8137
8145
8194
8083
8234
8044
8272
8029
8263
8056
8216
8081
8151
8121
8091
8140
8058
8139
8073
8108
8106
8063
8150
8024
8187
8003
8193
8018
8164
8061
8118
8127
8063
8178
8020
8202
8013
8207
8053
8155
8088
8113
8134
8078
8155
8078
8153
8121
8143
8182
8098
8238
8049
8269
8031
8274
8053
8231
8087
8181
8144
8109
8169
8068
8182
8055
8144
8073
8107
8117
8060
8155
8033
8163
8034
8153
8064
8103
8133
8053
8184
8013
8218
7995
8221
8010
8191
8058
8151
8106
8105
8147
8073
8154
8098
8141
8131
8105
8197
8068
8262
8050
8267
8054
8226
8089
8179
8148
8122
8203
8064
8220
8045
8208
8052
8152
8077
8096
8115
8061
8137
8049
8131
8067
8100
8113
8043
8175
8004
8212
7986
8237
8004
8195
8039
8153
8094
8100
8154
8076
8161
8063
8154
8091
8125
8145
8084
8200
8069
8228
8074
8217
8101
8172
8162
8115
8210
8064
8249
8042
8259
8049
8214
8069
8146
8101
8089
8123
8060
8125
8068
8114
8099
8068
8143
8022
8196
7997
8211
7998
8195
8028
8156
8088
8088
8147
8058
8192
8043
8195
8059
8155
8094
8114
8137
8082
8173
8080
8197
8110
8173
8163
8113
8214
8063
8264
8029
8282
8034
8245
8065
8204
8109
8125
8133
8077
8146
8055
8128
8080
8101
8120
8053
8153
8017
8192
8007
8184
8037
8141
8086
8084
8155
8032
8195
8004
8208
8018
8190
8053
8143
8099
8103
8144
8085
8165
8100
8151
8136
8115
8203
8078
8261
8051
8280
8035
8247
8063
8211
8121
8151
8161
8087
8193
8056
8177
8054
8138
8071
8092
8121
8059
8149
8038
8151
8052
8134
8088
8080
8153
8018
8195
7990
8217
7990
8209
8027
8180
8079
8126
8130
8089
8149
8072
8146
8100
8133
8147
8094
8209
8067
8260
8055
8243
8067
8209
8132
8149
8177
8091
8230
8062
8246
8043
8205
8055
8141
8095
8090
8123
8062
8146
8059
8125
8090
8085
8145
8030
8197
8002
8229
7989
8222
8014
8179
8065
8132
8130
8086
8165
8058
8166
8066
8155
8108
8118
8157
8085
8220
8076
8232
8096
8199
8136
8150
8192
8083
8231
8045
8267
8039
8256
8047
8204
8079
8133
8113
8081
8134
8060
8137
8083
8099
8117
8055
8154
8006
8188
7998
8196
8012
8174
8057
8127
8126
8066
8175
8040
8203
8035
8186
8061
8145
8100
8107
8151
8089
8168
8085
8181
8129
8150
8189
8095
8239
8046
8276
8032
8277
8052
8235
8091
8177
8140
8111
8165
8057
8148
8054
8130
8082
8085
8121
8039
8162
8020
8179
8023
8162
8062
8120
8131
8057
8190
8012
8215
8000
8228
8028
8192
8072
8135
8115
8102
8147
8082
8158
8103
8142
8164
8108
8218
8065
8265
8039
8269
8043
8235
8089
8188
8145
8126
8188
8063
8205
8044
8171
8058
8130
8092
8092
8131
8057
8152
8048
8155
8076
8106
8124
8048
8183
8010
8217
7987
8237
7999
8197
8045
8163
8103
8104
8154
8080
8159
8079
8156
8115
8116
8179
8091
8232
8071
8258
8070
8228
8101
8185
8156
8124
8209
8070
8240
8037
8239
8046
8192
8068
8131
8098
8070
8128
8059
8135
8074
8109
8103
8061
8169
8021
8208
7991
8235
8001
8208
8035
8159
8096
8102
8159
8064
8187
8049
8174
8064
8147
8113
8110
8164
8080
8208
8082
8204
8107
8172
8166
8126
8215
8059
8252
8042
8278
8032
8232
8057
8179
8094
8111
8119
8068
8137
8060
8126
8085
8087
8131
8044
8173
8009
8194
8011
8186
8034
8141
8085
8087
8152
8044
8201
8023
8208
8035
8189
8067
8137
8116
8103
8156
8093
8188
8112
8167
8164
8126
8215
8075
8258
8035
8279
8043
8270
8073
8214
8123
8155
8156
8086
8176
8049
8151
8059
8129
8093
8080
8141
8043
8160
8023
8167
8040
8135
8099
8080
8164
8031
8209
8004
8234
8007
8215
8039
8177
8087
8120
8131
8086
8162
8084
8154
8114
8134
8179
8094
8244
8063
8265
8051
8249
8068
8205
8122
8156
8181
8089
8215
8059
8216
8040
8169
8054
8112
8099
8078
8131
8052
8144
8058
8129
8094
8081
8157
8031
8202
7996
8238
7998
8222
8017
8186
8068
8132
8115
8094
8171
8070
8167
8088
8147
8125
8115
8191
8086
8239
8074
8237
8091
8210
8136
8148
8193
8094
8238
8052
8263
8036
8239
8048
8183
8079
8116
8111
8075
8139
8063
8131
8081
8094
8121
8053
8180
8010
8224
7997
8219
8022
8187
8059
8140
8125
8080
8185
8049
8198
8048
8173
8071
8136
8119
8110
8167
8092
8205
8101
8198
8144
8150
8188
8081
8236
8045
8267
8029
8275
8046
8211
8074
8159
8114
8091
8146
8061
8146
8066
8122
8101
8082
8151
8045
8172
8015
8190
8026
8170
8070
8126
8139
8061
8184
8016
8206
8014
8225
8038
8181
8080
8125
8124
8094
8161
8089
8182
8122
8157
8181
8109
8232
8066
8277
8038
8278
8053
8239
8090
8183
8136
8112
8180
8066
8183
8039
8153
8055
8118
8096
8077
8141
8043
8161
8037
8151
8071
8105
8125
8054
8181
8009
8221
7992
8234
8016
8204
8049
8166
8105
8102
8144
8082
8160
8094
8148
8131
8124
8203
8096
8253
8060
8258
8059
8239
8102
8187
8159
8130
8207
8074
8228
8035
8209
8035
8164
8068
8111
8114
8076
8139
8061
8140
8067
8104
8115
8061
8173
8009
8220
7990
8235
7999
8209
8037
8162
8094
8112
8161
8081
8186
8061
8172
8091
8145
8139
8111
8200
8090
8241
8093
8219
8113
8181
8170
8124
8220
8062
8266
8040
8268
8034
8217
8054
8162
8094
8101
8130
8068
8142
8074
8127
8096
8074
8134
8032
8191
8009
8214
8004
8196
8041
8162
8094
8097
8155
8055
8201
8033
8201
8040
8167
8085
8132
8133
8099
8174
8097
8202
8127
8180
8166
8130
8220
8070
8264
8043
8280
8044
8263
8061
8201
8108
8138
8145
8071
8151
8049
8144
8060
8116
8108
8070
8150
8033
8176
8028
8186
8056
8155
8097
8086
8162
8037
8213
8025
8234
8019
8206
8053
8174
8095
8112
8141
8096
8171
8106
8177
8137
8129
8193
8082
8250
8051
8271
8045
8254
8069
8216
8125
8157
8168
8093
8199
8053
8192
8035
8149
8069
8109
8112
8070
8144
8045
8149
8046
8122
8091
8085
8159
8037
8212
8000
8243
7993
8227
8033
8185
8070
8145
8125
8093
8159
8080
8169
8099
8148
8151
8113
8218
8082
8251
8061
8241
8076
8207
8135
8156
8188
8099
8227
8045
8245
8037
8210
8044
8153
8075
8102
8120
8073
8143
8063
8132
8088
8093
8148
8044
8193
8011
8235
7998
8218
8012
8192
8061
8141
8135
8087
8181
8058
8188
8059
8168
8098
8143
8149
8108
8203
8092
8225
8102
8199
8139
8156
8190
8090
8239
8053
8281
8032
8257
8038
8208
8070
8147
8110
8082
8134
8056
8137
8071
8113
8108
8069
8153
8028
8187
8009
8207
8027
8181
8065
8134
8127
8066
8178
8038
8213
8037
8223
8051
8164
8098
8126
8153
8100
8188
8112
8201
8135
8161
8191
8102
8241
8057
8277
8038
8280
8054
8236
8078
8170
8136
8113
8165
8059
8166
8056
8151
8079
8113
8120
8061
8152
8031
8168
8038
8164
8068
8118
8131
8065
8184
8015
8222
8003
8241
8019
8198
8064
8160
8110
8102
8153
8090
8158
8105
8153
8165
8129
8215
8077
8261
8054
8265
8060
8242
8097
8195
8154
8132
8202
8065
8216
8047
8198
8047
8148
8082
8106
8121
8072
8153
8060
8150
8072
8115
8134
8058
8177
8016
8223
7991
8238
8002
8206
8039
8168
8100
8114
8150
8071
8169
8071
8169
8108
8143
8163
8105
8231
8082
8247
8079
8222
8102
8183
8163
8131
8214
8074
8244
8031
8248
8028
8199
8054
8142
8092
8091
8123
8061
8139
8071
8116
8100
8075
8164
8031
8206
8002
8218
8004
8209
8031
8163
8092
8122
8164
8072
8197
8047
8181
8054
8157
8100
8128
8157
8107
8204
8099
8215
8119
8184
8163
8134
8222
8064
8267
8042
8285
8032
8239
8054
8186
8096
8115
8126
8071
8147
8056
8140
8083
8106
8115
8061
8165
8026
8195
8019
8191
8043
8154
8110
8106
8167
8050
8205
8013
8216
8026
8199
8057
8150
8104
8118
8157
8099
8182
8112
8185
8164
8134
8210
8083
8254
8045
8274
8039
8271
8066
8211
8118
8148
8156
8079
8175
8049
8164
8050
8136
8085
8105
8124
8061
8163
8049
8171
8053
8141
8099
8085
8159
8032
8205
7999
8239
7997
8226
8039
8192
8086
8130
8131
8096
8163
8092
8173
8125
8147
8180
8113
8226
8077
8262
8059
8246
8081
8212
8133
8166
8189
8089
8215
8040
8220
8025
8182
8047
8145
8089
8093
8132
8063
8146
8064
8130
8099
8096
8159
8045
8205
8014
8247
8006
8234
8029
8209
8079
8154
8143
8099
8180
8074
8187
8074
8167
8121
8135
8172
8110
8235
8089
8230
8095
8197
8137
8158
8192
8091
8236
8047
8260
8024
8250
8033
8191
8071
8127
8114
8075
8131
8067
8131
8081
8108
8122
8055
8161
8016
8195
8008
8208
8013
8185
8067
8137
8133
8080
8186
8043
8205
8041
8192
8065
8174
8124
8122
8173
8104
8207
8110
8202
8148
8154
8195
8095
8237
8049
8278
8032
8278
8042
8223
8076
8158
8111
8094
8140
8060
8156
8060
8141
8094
8101
8137
8055
8168
8030
8188
8038
8171
8068
8129
8134
8064
8195
8033
8225
8016
8239
8034
8195
8078
8142
8127
8109
8162
8112
8191
8131
8176
8179
8115
8225
8072
8266
8042
8270
8055
8234
8093
8183
8140
8100
8176
8056
8192
8032
8159
8046
8132
8094
8087
8129
8051
8150
8047
8153
8078
8111
8132
8063
8189
8013
8225
7996
8238
8015
8218
8062
8174
8115
8105
8144
8087
8172
8091
8168
8134
8134
8195
8102
8242
8077
8254
8067
8225
8103
8181
8163
8130
8215
8067
8238
8037
8237
8032
8188
8064
8134
8112
8087
8138
8067
8138
8075
8114
8120
8072
8181
8029
8211
7995
8222
8002
8209
8048
8175
8100
8116
8168
8071
8193
8056
8183
8090
8169
8135
8128
8192
8103
8228
8097
8214
8115
8179
8176
8128
8217
8058
8252
8033
8262
8025
8229
8047
8164
8087
8102
8126
8068
8147
8071
8132
8098
8104
8140
8051
8192
8024
8207
8023
8201
8049
8158
8110
8097
8165
8050
8204
8028
8217
8044
8194
8077
8150
8129
8109
8173
8107
8204
8126
8180
8169
8127
8218
8075
8268
8047
8287
8047
8265
8057
8200
8098
8132
8145
8068
8167
8053
8160
8065
8131
8096
8089
8144
8048
8167
8036
8174
8055
8150
8102
8089
8170
8042
8220
8014
8243
8014
8224
8050
8183
8092
8127
8146
8102
8168
8104
8183
8144
8162
8207
8109
8257
8064
8275
8055
8256
8086
8216
8130
8149
8173
8076
8199
8034
8200
8027
8166
8059
8122
8104
8087
8134
8056
8145
8061
8129
8103
8088
8164
8034
8208
8001
8249
7999
8230
8026
8195
8079
8145
8137
8088
8172
8077
8180
8100
8168
8141
8136
8205
8102
8247
8088
8237
8093
8205
8145
8156
8199
8081
8235
8039
8257
8025
8218
8033
8166
8071
8110
8121
8074
8137
8063
8132
8087
8097
8131
8050
8190
8021
8228
8004
8224
8029
8189
8075
8140
8143
8089
8191
8057
8213
8064
8205
8105
8159
8148
8125
8188
8103
8215
8112
8200
8144
8154
8200
8095
8247
8055
8279
8027
8257
8034
8209
8070
8144
8112
8090
8145
8065
8149
8073
8127
8104
8081
8148
8045
8189
8026
8203
8038
8175
8073
8123
8139
8067
8201
8034
8227
8025
8225
8047
8185
8089
8140
8143
8112
8182
8114
8193
8141
8164
8192
8100
8228
8058
8270
8045
8281
8054
8230
8076
8165
8126
8090
8164
8042
8176
8040
8156
8069
8121
8110
8081
8142
8048
8169
8052
8164
8085
8120
8146
8064
8195
8013
8227
8014
8249
8021
8212
8064
8165
8124
8116
8175
8101
8183
8112
8166
8155
8135
8210
8089
8248
8054
8262
8067
8232
8121
8184
8162
8119
8199
8051
8217
8026
8208
8033
8159
8068
8114
8115
8080
8147
8066
8144
8083
8109
8124
8064
8181
8019
8226
7996
8242
8010
8217
8053
8177
8120
8114
8166
8073
8189
8073
8183
8105
8164
8160
8135
8212
8094
8226
8088
8214
8117
8174
8170
8129
8224
8061
8246
8023
8252
8026
8213
8050
8150
8087
8097
8130
8073
8144
8073
8120
8099
8079
8149
8044
8197
8023
8221
8023
8203
8052
8165
8119
8119
8170
8065
8206
8040
8211
8054
8196
8107
8148
8159
8126
8206
8115
8217
8132
8186
8172
8130
8217
8078
8280
8048
8289
8035
8248
8051
8188
8091
8127
8141
8069
8153
8051
8140
8071
8112
8107
8073
8157
8045
8192
8032
8187
8052
8154
8109
8088
8169
8042
8219
8021
8241
8025
8215
8058
8179
8112
8144
8159
8124
8207
8134
8195
8149
8151
8214
8099
8260
8063
8274
8051
8256
8068
8201
8117
8142
8161
8068
8193
8040
8190
8041
8151
8074
8111
8114
8072
8142
8046
8157
8062
8145
8107
8086
8168
8039
8213
8008
8249
8000
8235
8045
8190
8090
8140
8146
8096
8180
8090
8182
8121
8166
8180
8128
8221
8086
8253
8067
8241
8087
8213
8142
8150
8186
8078
8219
8032
8222
8017
8185
8035
8156
8092
8110
8126
8081
8148
8069
8131
8089
8089
8141
8046
8198
8006
8235
7996
8222
8022
8191
8079
8146
8144
8088
8177
8060
8201
8072
8183
8117
8161
8184
8128
8231
8100
8221
8099
8198
8149
8155
8206
8097
8250
8044
8265
8021
8247
8031
8190
8066
8129
8111
8084
8144
8067
8141
8081
8119
8114
8071
8166
8037
8217
8018
8209
8031
8181
8072
8126
8138
8071
8195
8041
8217
8033
8220
8066
8190
8105
8132
8168
8117
8205
8120
8209
8154
8158
8193
8097
8239
8059
8275
8040
8284
8048
8224
8074
8158
8128
8092
8157
8051
8157
8048
8146
8077
8104
8122
8069
8164
8040
8180
8052
8171
8083
8128
8149
8062
8194
8023
8238
8010
8250
8034
8205
8072
8162
8130
8112
8184
8114
8189
8129
8177
8173
8127
8220
8082
8265
8060
8277
8069
8242
8098
8180
8148
8115
8190
8053
8213
8036
8188
8051
8149
8080
8100
8118
8073
8150
8059
8142
8083
8117
8146
8072
8195
8021
8230
8002
8255
8017
8222
8059
8168
8108
8109
8163
8083
8187
8082
8174
8118
8151
8177
8111
8234
8096
8253
8083
8223
8109
8183
8169
8114
8208
8050
8234
8019
8234
8016
8187
8052
8139
8099
8096
8134
8074
8145
8085
8125
8116
8084
8176
8041
8218
8017
8241
8014
8216
8061
8173
8126
8118
8168
8063
8199
8054
8210
8081
8186
8120
8141
8169
8107
8205
8096
8201
8112
8158
8157
8100
8219
8062
8267
8032
8268
8025
8232
8046
8181
8094
8120
8157
8084
8165
8076
8158
8102
8120
8133
8065
8173
8034
8202
8035
8197
8061
8161
8124
8105
8180
8048
8221
8025
8242
8026
8195
8058
8152
8117
8125
8160
8095
8167
8094
8141
8123
8103
8188
8057
8237
8032
8271
8049
8273
8087
8211
8131
8143
8168
8089
8212
8081
8238
8100
8180
8117
8128
8170
8098
8182
8060
8184
8083
8161
8145
8102
8194
8053
8242
8022
8265
8030
8233
8047
8185
8093
8144
8168
8110
8194
8108
8180
8132
8150
8180
8106
8222
8066
8261
8062
8245
8085
8202
8127
8127
8172
8055
8196
8012
8196
8017
8175
8051
8144
8098
8097
8134
8071
8145
8067
8124
8093
8070
8151
8031
8204
8002
8247
8001
8227
8035
8195
8076
8124
8132
8071
8178
8070
8192
8092
8176
8131
8140
8192
8104
8229
8085
8216
8091
8199
8161
8155
8202
8074
8234
8029
8248
8011
8222
8029
8174
8072
8113
8110
8074
8141
8072
8141
8083
8101
8130
8061
8184
8026
8233
8026
8226
8045
8205
8113
8155
8167
8085
8210
8051
8211
8041
8204
8066
8172
8123
8117
8169
8098
8195
8102
8182
8131
8144
8200
8100
8258
8057
8287
8037
8283
8063
8230
8081
8158
8139
8102
8180
8081
8178
8084
8155
8109
8110
8148
8067
8187
8040
8188
8041
8166
8095
8129
8160
8073
8215
8037
8253
8028
8244
8044
8191
8087
8145
8141
8119
8180
8116
8193
8137
8167
8179
8107
8228
8068
8268
8051
8269
8051
8220
8081
8158
8128
8074
8168
8040
8188
8022
8150
8020
8086
8046
8041
8094
8028
8122
8019
8111
8061
8087
8127
8041
8182
8007
8231
8007
8271
8063
8281
8141
8236
8199
8197
8248
8181
8276
8167
8243
8194
8184
8226
8123
8255
8086
8266
8084
8224
8118
8166
8155
8087
8202
8038
8218
8007
8206
8016
8157
8050
8104
8092
8080
8125
8058
8128
8065
8107
8113
8057
8171
8012
8204
7997
8249
8035
8227
8076
8181
8133
8104
8175
8064
8199
8062
8192
8099
8183
8162
8158
8229
8134
8256
8111
8224
8144
8182
8193
8127
8237
8063
8277
8035
8274
8027
8206
8037
8145
8081
8090
8121
8056
8134
8051
8117
8078
8082
8125
8034
8164
8013
8203
8019
8188
8054
8150
8116
8085
8171
8041
8215
8032
8230
8046
8200
8087
8157
8144
8134
8204
8116
8201
8125
8177
8174
8118
8222
8077
8273
8042
8280
8036
8236
8051
8176
8093
8106
8153
8061
8181
8054
8169
8073
8120
8080
8054
8095
7993
8096
7956
8074
7975
8031
8017
7979
8078
7958
8175
7979
8212
7997
8206
8053
8191
8144
8204
8266
8239
8350
8305
8371
8323
8308
8343
8233
8359
8154
8354
8141
8329
8145
8228
8140
8134
8171
8062
8210
8040
8212
8042
8190
8084
8146
8136
8115
8174
8101
8190
8103
8184
8179
8145
8221
8072
8266
8043
8278
8034
8248
8036
8182
8075
8107
8126
8084
8175
8075
8176
8096
8152
8125
8099
8169
8063
8203
8044
8198
8073
8174
8128
8114
8165
8040
8205
8006
8237
7999
8203
8033
8162
8082
8106
8116
8065
8124
8062
8123
8079
8073
8116
8038
8191
8011
8211
8000
8209
8027
8175
8074
8120
8124
8027
8149
8013
8167
8018
8152
8066
8140
8149
8125
8188
8091
8189
8089
8169
8135
8133
8206
8091
8275
8069
8320
8088
8334
8128
8291
8148
8186
8159
8112
8177
8082
8174
8079
8119
8099
8061
8121
8010
8155
8002
8181
8045
8177
8110
8127
8171
8078
8213
8031
8228
8022
8236
8059
8192
8121
8186
8189
8138
8206
8111
8156
8089
8083
8119
8036
8196
8038
8268
8035
8261
8049
8217
8080
8159
8167
8134
8217
8080
8211
8071
8185
8112
8185
8189
8156
8241
8130
8250
8119
8210
8130
8134
8159
8039
8163
7943
8133
7908
8115
7906
8079
7953
8041
8019
8005
8065
8000
8096
8056
8120
8131
8133
8247
8124
8315
8142
8354
8187
8349
8256
8301
8285
8227
8357
8208
8398
8218
8387
8203
8306
8193
8199
8179
8114
8175
8089
8145
8080
8089
8107
8022
8124
7934
8122
7906
8127
7927
8117
7988
8079
8052
8049
8126
8052
8158
8038
8140
8065
8117
8138
8123
8229
8113
8277
8166
8271
8190
8210
8207
8138
8243
8069
8277
8030
8252
8009
8198
8063
8166
8123
8111
8148
8070
8121
8033
8068
8037
8000
8079
7955
8110
7922
8113
7926
8100
7987
8085
8073
8049
8137
8003
8169
8003
8179
8038
8181
8115
8175
8190
8126
8204
8128
8247
8187
8222
8205
8125
8243
8074
8272
8014
8245
8007
8215
8070
8211
8160
8175
8207
8151
8258
8138
8253
8166
8213
8219
8187
8287
8142
8292
8140
8301
8166
8207
8164
8069
8141
7965
8111
7898
8094
7885
8030
7855
7921
7866
7879
7929
7907
8017
8000
8089
8117
8134
8243
8132
8322
8133
8406
8257
8477
8359
8505
8452
8459
8488
8371
8480
8331
8466
8277
8351
8236
8247
8219
8137
8191
8084
8176
8071
8108
8086
8031
8111
7956
8122
7896
8109
7880
8091
7927
8060
7979
8015
8021
7957
8033
7951
8076
8031
8079
8099
8051
8147
8029
8155
7992
8166
8059
8173
8121
8124
8199
8092
8279
8089
8314
8101
8277
8112
8229
8204
8272
8323
8282
8363
8273
8282
8210
8163
8209
8078
8222
8036
8283
8053
8253
8048
8168
8067
8086
8097
8021
8128
7995
8144
8019
8126
8077
8120
8135
8084
8189
8089
8195
8065
8135
8093
8076
8158
8033
8206
8005
8264
8060
8312
8118
8286
8167
8185
8144
8069
8117
8026
8104
8028
8060
8064
8017
8113
7967
8127
7945
8109
7944
8061
7979
8000
8035
7951
8078
7904
8082
7911
8094
7978
8116
8107
8179
8262
8248
8329
8244
8295
8259
8260
8312
8210
8397
8222
8423
8162
8384
8162
8304
8157
8192
8171
8102
8179
8049
8146
8012
8094
8019
8034
8058
7992
8080
7957
8084
7979
8089
8065
8116
8188
8092
8228
8044
8281
8060
8301
8107
8276
8164
8247
8242
8205
8265
8177
8272
8219
8260
8258
8197
8277
8099
8278
8041
8221
8018
8155
8034
8084
8077
8022
8126
7971
8128
7962
8116
7979
8085
8023
8029
8059
8004
8071
7984
8081
8063
8104
8145
8023
8159
8000
8248
8035
8318
8121
8356
8235
8341
8268
8234
8285
8204
8309
8180
8260
8166
8163
8183
8097
8205
8057
8216
8068
8180
8062
8087
8098
8038
8180
8000
8174
7933
8114
7908
8071
7958
8059
8055
8069
8151
8111
8216
8160
8209
8212
8182
8290
8140
8344
8154
8395
8188
8353
8176
8237
8192
8159
8223
8103
8247
8080
8241
8088
8194
8130
8152
8186
8104
8176
8065
8150
8065
8095
8108
8042
8160
7996
8212
7977
8212
7984
8193
8030
8159
8094
8113
8155
8071
8155
8068
8127
8072
8085
8110
8030
8135
7980
8106
7930
8075
7957
8016
8005
7984
8090
7969
8166
7984
8187
8004
8151
8053
8171
8164
8216
8308
8277
8361
8261
8257
8230
8174
8276
8163
8383
8190
8417
8184
8379
8195
8288
8193
8191
8216
8108
8239
8114
8275
8126
8200
8105
8087
8102
7996
8085
7973
8085
7992
8052
8058
8037
8137
7998
8203
7986
8243
8019
8242
8073
8223
8153
8202
8228
8182
8273
8201
8282
8214
8224
8238
8145
8274
8104
8280
8070
8243
8089
8194
8132
8119
8163
8039
8173
7978
8157
7982
8132
8002
8077
8042
8033
8062
7987
8053
7962
8005
7965
7950
8032
7940
8120
7932
8145
7923
8121
7924
8072
7998
8088
8137
8101
8214
8093
8246
8143
8267
8268
8295
8369
8337
8489
8349
8438
8290
8339
8273
8248
8296
8150
8275
8044
8272
8029
8252
8068
8226
8125
8174
8163
8099
8152
8074
8146
8098
8102
8110
8034
8154
8004
8175
7980
8174
7988
8123
8025
8064
8083
8000
8120
7973
8129
7956
8100
7979
8062
8035
8052
8121
8075
8168
8080
8178
8177
8180
8230
8125
8298
8111
8360
8122
8348
8096
8256
8148
8224
8215
8180
8234
8124
8219
8104
8190
8147
8133
8165
8075
8181
8038
8182
8030
8148
8065
8086
8125
8025
8166
7980
8160
7931
8118
7925
8042
7944
7997
7985
7964
8047
8004
8107
8083
8125
8183
8133
8309
8186
8423
8241
8435
8204
8364
8235
8287
8256
8203
8266
8107
8243
8090
8270
8159
8238
8149
8102
8138
8052
8150
8055
8128
8052
8060
8098
8017
8181
8016
8258
8010
8264
8060
8272
8166
8262
8212
8178
8217
8113
8200
8092
8144
8092
8070
8100
8000
8110
7963
8117
7933
8056
7946
7999
8006
7948
8077
7942
8160
7990
8207
8050
8240
8186
8306
8313
8311
8424
8367
8388
8253
8229
8227
8159
8275
8097
8284
8043
8265
8036
8221
8076
8171
8137
8123
8195
8078
8215
8073
8188
8058
8113
8070
8060
8109
8005
8123
8008
8107
8034
8074
8098
8049
8186
8021
8251
8039
8299
8056
8224
8034
8141
8116
8131
8169
8092
8169
8088
8139
8108
8094
8150
8080
8243
8070
8259
8071
8241
8137
8251
8246
8228
8301
8141
8289
8066
8262
8078
8234
8133
8193
8173
8141
8199
8101
8167
8101
8130
8123
8069
8155
7971
8112
7869
8068
7845
8049
7880
8000
7915
7923
8012
7992
8111
8000
8135
8090
8201
8193
8205
8333
8278
8419
8278
8396
8306
8360
8347
8266
8318
8122
8318
8073
8300
8062
8279
8098
8214
8134
8155
8175
8103
8169
8087
8150
8110
8086
8120
8016
8145
7971
8150
7943
8110
7935
8023
7966
7989
8104
8044
8199
8048
8217
8030
8156
8051
8115
8127
8127
8206
8161
8298
8220
8250
8212
8165
8238
8096
8276
8042
8279
8026
8243
8053
8208
8127
8157
8179
8118
8211
8106
8229
8117
8166
8132
8107
8171
8050
8170
8027
8165
8037
8130
8083
8057
8117
7986
8151
7958
8199
7993
8189
8012
8116
8023
8050
8067
8032
8113
8092
8218
8218
8250
8298
8179
8323
8139
8333
8072
8271
8069
8205
8124
8158
8181
8108
8242
8096
8282
8138
8281
8153
8197
8178
8121
8182
8094
8204
8098
8172
8117
8097
8161
8032
8193
7979
8210
7990
8238
8062
8226
8110
8171
8137
8060
8128
8043
8131
8050
8095
8077
8056
8112
7989
8108
7929
8080
7947
8080
8027
8069
8138
8057
8205
8040
8270
8071
8297
8157
8315
8231
8267
8243
8165
8241
8146
8198
8142
8175
8242
8172
8308
8113
8323
8081
8301
8118
8327
8202
8246
8219
8183
8268
8132
8256
8088
8200
8094
8127
8112
8079
8142
8038
8148
8029
8116
8042
8015
8021
7897
8001
7779
7969
7746
7977
7786
7965
7853
7992
8010
8033
8133
8161
8348
8340
8422
8443
8440
8520
8446
8590
8356
8468
8244
8372
8244
8274
8262
8190
8280
8091
8260
8038
8204
8039
8149
8043
8070
8081
8031
8091
8019
8096
8059
8074
8085
8015
8168
8005
8237
7999
8220
7989
8158
8005
8089
8074
8056
8119
8037
8161
8039
8138
8039
8085
8101
8106
8251
8120
8263
8120
8214
8109
8148
8165
8087
8214
8044
8273
8031
8262
8024
8198
8059
8156
8110
8113
8160
8102
8187
8133
8188
8164
8095
8135
7974
8104
7901
8081
7888
8044
7923
8010
8000
8011
8151
8047
8236
8119
8329
8184
8351
8294
8316
8294
8210
8277
8160
8266
8227
8296
8309
8207
8294
8114
8331
8088
8333
8089
8290
8097
8200
8122
8109
8144
8054
8165
8054
8143
8056
8081
8094
8044
8123
8001
8138
7985
8090
7971
8026
8020
7990
8091
7962
8168
7948
8162
7980
8202
8089
8232
8202
8232
8295
8250
8339
8262
8294
8249
8203
8255
8125
8297
8090
8296
8063
8244
8078
8194
8120
8117
8160
8057
8190
8027
8163
8019
8124
8047
8074
8077
8015
8081
7972
8061
7984
8037
8026
7972
8060
7934
8134
7937
8177
7957
8202
8073
8256
8185
8193
8187
8132
8269
8198
8306
8273
8325
8331
8259
8324
8179
8359
8200
8351
8201
8267
8202
8181
8236
8088
8242
8031
8241
8017
8191
8053
8163
8103
8113
8139
8080
8151
8068
8111
8081
8049
8112
7987
8139
7949
8157
7942
8155
7968
8120
8031
8078
8099
8028
8098
7951
8082
7968
8087
8043
8056
8045
7985
8099
8041
8193
8099
8205
8201
8224
8361
8308
8501
8320
8551
8312
8469
8226
8338
8206
8231
8203
8152
8213
8123
8184
8114
8148
8153
8092
8190
8048
8226
8027
8181
8007
8144
8068
8108
8152
8057
8196
8023
8205
8008
8174
8031
8131
8076
8081
8099
8041
8107
8044
8120
8097
8096
8159
8063
8237
8044
8263
8011
8248
8033
8194
8071
8160
8174
8144
8223
8099
8203
8070
8148
8078
8092
8101
8037
8119
8001
8142
8042
8158
8092
8123
8188
8087
8233
8054
8321
8096
8316
8093
8262
8122
8202
8186
8167
8224
8132
8208
8130
8174
8172
8111
8199
8037
8205
7988
8159
7967
8125
8011
8057
8054
7996
8106
7979
8154
8000
8177
8042
8133
8095
8141
8201
8156
8285
8213
8298
8225
8240
8293
8187
8294
8079
8294
8043
8278
8037
8226
8086
8180
8160
8153
8221
8128
8251
8142
8229
8148
8162
8191
8107
8227
8076
8221
8056
8158
8047
8066
8053
7976
8076
7920
8114
7900
8093
7891
8045
7947
8034
8001
8010
8090
8046
8140
8098
8178
8230
8230
8349
8197
8398
8201
8409
8197
8360
8207
8290
8257
8232
8289
8181
8320
8137
8290
8133
8246
8185
8190
8208
8120
8204
8091
8177
8093
8118
8133
8047
8165
7991
8200
7971
8206
7978
8183
8033
8157
8087
8082
8093
8005
8094
8009
8088
8023
8031
8047
7978
8104
7975
8155
8001
8139
8015
8047
8010
7982
8090
7968
8171
7996
8244
8078
8284
8172
8276
8263
8282
8330
8266
8348
8312
8380
8371
8297
8335
8173
8343
8111
8322
8085
8284
8089
8209
8134
8129
8176
8075
8192
8040
8159
8040
8129
8076
8081
8105
8024
8121
8017
8126
8039
8103
8099
8051
8147
8002
8200
7978
8226
7987
8208
8048
8203
8143
8171
8179
8105
8183
8092
8164
8130
8173
8229
8161
8277
8084
8253
8046
8214
8046
8141
8078
8074
8143
8026
8197
8014
8213
8052
8241
8104
8194
8150
8126
8134
8067
8141
8071
8134
8128
8121
8217
8086
8277
8054
8272
8021
8230
8046
8190
8100
8140
8169
8099
8213
8088
8200
8075
8161
8127
8136
8195
8105
8234
8081
8206
8080
8159
8096
8070
8143
8016
8182
7979
8204
7980
8195
8018
8175
8083
8124
8136
8100
8178
8094
8152
8097
8108
8141
8058
8185
8031
8236
8037
8233
8046
8168
8078
8115
8166
8103
8254
8130
8338
8149
8286
8136
8212
8159
8152
8227
8140
8247
8150
8215
8160
8151
8211
8069
8207
7992
8252
8042
8291
8076
8242
8109
8156
8141
8103
8183
8072
8176
8087
8159
8102
8097
8141
8036
8150
7998
8149
8015
8126
8068
8090
8138
8005
8130
7927
8113
7875
8083
7943
8134
8040
8089
8125
8145
8267
8206
8288
8273
8319
8381
8348
8489
8309
8425
8141
8319
8108
8263
8164
8226
8215
8133
8202
8060
8203
8045
8164
8044
8128
8104
8094
8144
8055
8143
8051
8134
8078
8094
8143
8060
8241
8071
8290
8030
8246
8005
8191
8047
8132
8090
8073
8125
8044
8125
8035
8124
8126
8181
8287
8166
8284
8126
8309
8156
8256
8138
8173
8182
8085
8195
8030
8221
8009
8209
8023
8184
8078
8149
8138
8107
8152
8070
8143
8096
8128
8155
8085
8196
8033
8238
8017
8230
8009
8204
8063
8176
8136
8127
8195
8087
8239
8112
8256
8127
8193
8150
8135
8180
8093
8204
8090
8195
8105
8147
8153
8062
8177
8001
8205
7980
8225
7990
8191
8036
8145
8084
8086
8121
8063
8145
8068
8132
8107
8103
8152
8055
8194
8029
8216
8031
8197
8070
8163
8135
8105
8199
8062
8242
8063
8266
8088
8253
8140
8208
8178
8143
8211
8137
8227
8165
8186
8167
8097
8192
8031
8227
8008
8245
7998
8205
8028
8161
8083
8100
8144
8068
8183
8046
8166
8076
8136
8120
8100
8168
8067
8203
8062
8186
8075
8155
8140
8090
8197
8044
8245
8039
8284
8064
8291
8114
8232
8163
8171
8193
8127
8205
8133
8211
8184
8177
8206
8079
8209
8031
8233
8023
8214
8055
8178
8114
8127
8184
8071
8201
8033
8201
8036
8175
8073
8135
8124
8098
8158
8075
8167
8099
8168
8146
8104
8209
8078
8272
8047
8272
8032
8270
8078
8221
8139
8177
8188
8116
8200
8097
8207
8116
8172
8155
8132
8214
8104
8243
8081
8228
8087
8175
8131
8095
8165
8047
8215
8006
8240
8009
8211
8042
8168
8085
8116
8137
8086
8158
8082
8141
8110
8116
8176
8076
8218
8044
8258
8033
8236
8050
8197
8116
8156
8180
8104
8231
8091
8269
8106
8252
8132
8196
8179
8141
8212
8114
8220
8118
8186
8151
8121
8181
8048
8218
8008
8243
8000
8228
8022
8187
8071
8141
8135
8089
8170
8080
8164
8079
8134
8121
8102
8170
8068
8210
8047
8215
8070
8184
8117
8135
8177
8080
8233
8048
8269
8058
8273
8101
8236
8148
8185
8188
8134
8203
8118
8197
8142
8141
8183
8086
8221
8035
8247
8010
8228
8033
8206
8082
8149
8138
8079
8174
8046
8195
8051
8177
8088
8138
8121
8073
8136
8047
8165
8066
8169
8108
8139
8171
8068
8221
8027
8257
8025
8265
8059
8230
8109
8200
8182
8155
8206
8121
8207
8129
8190
8159
8135
8214
8088
8241
8053
8227
8053
8197
8093
8152
8155
8079
8202
8047
8216
8014
8192
8032
8162
8081
8129
8141
8095
8155
8082
8148
8102
8122
8164
8081
8210
8043
8260
8022
8267
8044
8234
8090
8200
8172
8157
8227
8123
8254
8123
8238
8131
8168
8160
8125
8211
8096
8225
8081
8191
8099
8138
8145
8071
8196
8024
8233
8002
8224
8002
8180
8035
8121
8085
8087
8133
8058
8132
8064
8118
8111
8088
8164
8058
8235
8043
8262
8063
8235
8105
8187
8172
8148
8225
8104
8277
8103
8294
8126
8264
8154
8195
8191
8144
8228
8121
8212
8130
8161
8167
8088
8197
8029
8226
7999
8244
8004
8207
8040
8166
8098
8107
8147
8061
8161
8052
8151
8078
8125
8129
8080
8164
8049
8196
8051
8191
8086
8152
8143
8093
8196
8055
8252
8033
8274
8050
8255
8102
8213
8168
8188
8210
8143
8229
8143
8202
8180
8136
8210
8076
8245
8042
8245
8023
8207
8047
8167
8114
8117
8159
8050
8181
8015
8182
8041
8148
8073
8115
8125
8081
8171
8081
8186
8105
8161
8154
8100
8194
8042
8232
8019
8269
8028
8244
8075
8217
8147
8177
8204
8138
8221
8119
8209
8134
8170
8180
8128
8221
8088
8240
8053
8196
8065
8162
8119
8108
8174
8046
8209
8014
8218
8017
8198
8053
8165
8109
8124
8143
8081
8152
8088
8143
8118
8103
8178
8063
8222
8030
8264
8037
8248
8067
8217
8129
8175
8200
8132
8241
8104
8260
8111
8235
8138
8182
8189
8130
8229
8107
8214
8104
8179
8143
8106
8178
8039
8213
8002
8250
8003
8216
8025
8181
8076
8111
8116
8080
8144
8071
8150
8083
8114
8124
8075
8171
8040
8211
8039
8222
8064
8190
8110
8135
8187
8098
8253
8076
8289
8089
8272
8118
8221
8146
8159
8189
8124
8207
8119
8188
8131
8128
8187
8074
8224
8023
8255
8010
8237
8031
8200
8085
8152
8147
8085
8177
8055
8193
8063
8163
8102
8121
8136
8077
8162
8047
8183
8053
8163
8095
8101
8149
8036
8189
8006
8224
8002
8219
8032
8225
8115
8192
8185
8151
8209
8134
8231
8154
8193
8178
8106
8191
8028
8187
8007
8213
8043
8206
8114
8161
8161
8093
8218
8071
8251
8069
8266
8116
8225
8173
8190
8222
8150
8245
8128
8190
8133
8155
8193
8088
8217
8019
8238
7989
8221
7990
8184
8047
8152
8133
8102
8172
8065
8169
8055
8145
8098
8128
8165
8101
8219
8070
8217
8070
8183
8099
8132
8138
8053
8180
7995
8188
7965
8155
7962
8126
8014
8090
8050
8039
8098
8057
8156
8100
8112
8098
8056
8175
8053
8268
8063
8276
8076
8275
8184
8297
8308
8289
8382
8259
8405
8222
8371
8239
8323
8255
8248
8246
8151
8267
8191
8299
8222
8197
8163
8045
8166
7983
8183
7943
8171
7963
8177
8033
8159
8102
8094
8136
8089
8240
8162
8304
8269
8280
8274
8166
8273
8106
8287
8120
8257
8138
8178
8157
8114
8215
8061
8281
8059
8273
8059
8220
8087
8175
8131
8123
8165
8092
8162
8102
8142
8129
8082
8178
8017
8186
7969
8166
7954
8158
8004
8112
8051
8054
8116
8021
8145
8010
8139
8023
8114
8060
8065
8104
8039
8134
8031
8132
8047
8098
8096
8048
8160
8004
8206
7982
8226
8008
8224
8049
8182
8101
8130
8167
8105
8191
8106
8179
8139
8139
8175
8085
8198
8038
8206
8021
8183
8043
8153
8112
8102
8175
8045
8205
8015
8213
8018
8170
8059
8126
8097
8095
8137
8078
8154
8091
8141
8127
8100
8187
8051
8227
8008
8250
8018
8249
8071
8235
8157
8190
8229
8159
8249
8102
8218
8098
8190
8128
8146
8204
8117
8236
8099
8235
8131
8210
8168
8136
8208
8071
8257
8051
8279
8039
8262
8069
8202
8105
8130
8142
8100
8172
8098
8170
8128
8140
8174
8087
8213
8057
8256
8053
8241
8072
8204
8135
8150
8195
8108
8251
8092
8284
8093
8263
8117
8194
8145
8141
8199
8125
8210
8119
8184
8154
8126
8194
8074
8244
8030
8252
7994
8219
8016
8183
8073
8129
8110
8072
8168
8064
8170
8070
8145
8106
8103
8154
8067
8189
8055
8212
8081
8177
8122
8128
8181
8072
8232
8050
8278
8056
8281
8088
8236
8126
8178
8175
8133
8202
8120
8201
8140
8150
8182
8104
8226
8053
8250
8034
8234
8038
8191
8076
8131
8143
8069
8178
8033
8200
8033
8180
8064
8154
8116
8110
8158
8085
8172
8085
8165
8110
8107
8164
8045
8201
8012
8245
8009
8246
8032
8221
8104
8188
8172
8146
8212
8126
8244
8132
8202
8169
8163
8226
8116
8258
8089
8242
8081
8206
8129
8145
8170
8083
8228
8059
8270
8059
8282
8108
8259
8132
8177
8151
8113
8174
8105
8170
8116
8133
8159
8080
8205
8034
8236
8011
8236
8035
8215
8081
8181
8164
8136
8222
8091
8235
8084
8228
8106
8168
8130
8112
8166
8076
8190
8075
8169
8099
8115
8148
8054
8202
8013
8223
7989
8236
8019
8221
8076
8163
8105
8094
8144
8070
8152
8071
8137
8112
8104
8166
8062
8204
8035
8207
8035
8184
8074
8153
8161
8117
8241
8098
8293
8080
8281
8084
8226
8116
8176
8156
8131
8200
8125
8198
8127
8160
8175
8103
8211
8042
8238
8017
8252
8024
8228
8065
8168
8119
8103
8156
8058
8180
8049
8158
8057
8125
8102
8089
8153
8063
8185
8059
8176
8087
8138
8143
8081
8208
8053
8272
8053
8304
8078
8284
8108
8216
8154
8162
8201
8136
8230
8145
8214
8185
8171
8218
8101
8247
8047
8226
8030
8203
8054
8154
8115
8110
8184
8055
8204
8022
8213
8043
8198
8088
8142
8140
8112
8178
8107
8197
8124
8172
8163
8106
8214
8048
8253
8027
8278
8038
8254
8078
8215
8147
8164
8193
8109
8209
8087
8188
8110
8184
8154
8125
8195
8083
8209
8064
8191
8069
8138
8123
8079
8166
8030
8215
8004
8238
8013
8209
8053
8168
8094
8112
8127
8081
8152
8080
8144
8119
8107
8180
8073
8220
8044
8252
8037
8233
8083
8205
8149
8164
8221
8133
8273
8101
8262
8095
8233
8121
8178
8164
8137
8206
8108
8209
8112
8165
8140
8097
8180
8037
8224
8006
8254
8008
8232
8039
8181
8082
8134
8145
8094
8188
8086
8171
8085
8132
8121
8094
8169
8057
8200
8042
8195
8062
8167
8129
8130
8186
8087
8246
8060
8295
8074
8276
8095
8208
8133
8170
8192
8133
8218
8126
8182
8134
8127
8181
8068
8220
8028
8246
8024
8232
8057
8210
8119
8150
8159
8077
8195
8057
8219
8069
8183
8092
8136
8134
8091
8166
8071
8184
8084
8172
8139
8113
8184
8061
8238
8036
8281
8041
8284
8079
8238
8113
8181
8179
8135
8211
8117
8220
8138
8189
8175
8120
8213
8071
8230
8037
8216
8054
8180
8089
8119
8150
8059
8196
8023
8216
8013
8201
8033
8166
8079
8102
8115
8076
8146
8088
8159
8119
8128
8181
8087
8232
8045
8268
8039
8290
8080
8258
8139
8208
8205
8159
8236
8112
8252
8105
8229
8127
8187
8184
8129
8214
8093
8217
8086
8169
8102
8120
8158
8052
8212
8016
8232
8002
8235
8020
8189
8064
8147
8115
8097
8149
8071
8156
8087
8129
8125
8087
8184
8053
8227
8034
8224
8045
8201
8097
8162
8171
8114
8224
8074
8265
8068
8263
8087
8211
8145
8178
8190
8130
8220
8123
8196
8127
8144
8165
8071
8202
8024
8243
7994
8229
8005
8192
8049
8139
8093
8072
8152
8060
8189
8072
8175
8110
8153
8167
8126
8233
8089
8227
8080
8200
8110
8163
8176
8121
8245
8079
8289
8056
8284
8068
8238
8097
8188
8154
8142
8189
8116
8206
8133
8182
8166
8110
8195
8056
8228
8021
8225
8027
8202
8063
8153
8124
8095
8181
8045
8193
8020
8190
8046
8154
8094
8115
8133
8090
8172
8081
8175
8102
8150
8159
8084
8219
8047
8269
8025
8281
8045
8257
8103
8223
8164
8164
8207
8117
8217
8113
8212
8146
8166
8187
8117
8214
8075
8217
8058
8193
8083
8154
8131
8084
8186
8036
8229
8013
8236
8021
8205
8056
8161
8116
8114
8148
8091
8164
8093
8151
8144
8115
8206
8070
8243
8033
8258
8043
8238
8082
8211
8156
8164
8205
8096
8228
8079
8237
8092
8208
8133
8159
8172
8109
8192
8089
8190
8093
8148
8141
8083
8185
8032
8232
8007
8257
8017
8219
8045
8174
8100
8138
8158
8097
8180
8087
8162
8105
8125
8142
8082
8200
8057
8220
8051
8215
8075
8183
8141
8128
8202
8082
8261
8072
8285
8084
8265
8106
8207
8146
8146
8192
8111
8189
8108
8149
8125
8088
8162
8025
8191
7989
8210
7995
8214
8029
8169
8082
8127
8148
8084
8200
8076
8232
8111
8220
8153
8168
8200
8117
8222
8088
8211
8100
8172
8133
8121
8202
8073
8246
8044
8288
8057
8280
8080
8233
8143
8180
8178
8131
8205
8122
8207
8137
8147
8166
8082
8196
8041
8231
8039
8232
8062
8186
8108
8120
8157
8064
8199
8029
8215
8025
8199
8057
8151
8108
8108
8137
8081
8163
8090
8149
8110
8088
8160
8045
8207
8015
8259
8014
8247
8051
8232
8127
8194
8194
8145
8233
8121
8269
8147
8250
8184
8170
8198
8110
8218
8072
8204
8068
8174
8118
8121
8171
8058
8210
8012
8229
8004
8239
8041
8190
8079
8130
8124
8092
8152
8075
8144
8096
8116
8140
8078
8200
8048
8239
8032
8236
8061
8213
8118
8172
8183
8128
8235
8080
8253
8081
8248
8109
8203
8153
8161
8197
8118
8205
8102
8175
8116
8115
8166
8061
8216
8016
8253
8009
8251
8031
8209
8068
8156
8139
8107
8182
8080
8193
8085
8164
8119
8126
8164
8089
8218
8068
8216
8058
8186
8104
8148
8170
8100
8235
8064
8278
8058
8285
8077
8231
8121
8191
8177
8144
8209
8123
8196
8121
8149
8164
8079
8190
8032
8232
8012
8229
8027
8197
8062
8149
8123
8085
8172
8049
8199
8041
8179
8068
8158
8116
8110
8156
8081
8173
8088
8178
8106
8137
8161
8084
8227
8041
8271
8038
8282
8058
8246
8097
8199
8159
8150
8199
8113
8212
8119
8181
8143
8132
8179
8081
8208
8049
8213
8051
8207
8102
8170
8166
8117
8216
8059
8243
8031
8238
8044
8207
8081
8148
8121
8091
8141
8083
8161
8107
8140
8165
8100
8208
8068
8273
8053
8280
8055
8256
8103
8211
8157
8156
8209
8104
8232
8095
8236
8114
8192
8140
8135
8171
8087
8196
8071
8185
8098
8148
8148
8091
8206
8034
8231
8003
8239
8011
8209
8046
8173
8106
8110
8150
8093
8170
8089
8137
8100
8093
8139
8051
8182
8023
8207
8022
8192
8072
8181
8165
8152
8231
8106
8286
8096
8296
8108
8273
8143
8215
8190
8155
8211
8123
8201
8111
8138
8126
8085
8186
8047
8228
8015
8254
8007
8211
8031
8167
8101
8130
8169
8098
8205
8085
8207
8094
8157
8137
8135
8197
8098
8227
8087
8216
8094
8175
8151
8114
8202
8061
8254
8050
8293
8058
8268
8090
8219
8135
8178
8188
8140
8230
8129
8196
8141
8131
8175
8070
8210
8027
8217
8014
8205
8042
8165
8091
8123
8159
8060
8206
8039
8215
8047
8192
8074
8142
8123
8099
8157
8075
8179
8092
8157
8138
8099
8186
8056
8243
8025
8280
8036
8270
8071
8226
8128
8172
8177
8121
8222
8109
8230
8121
8191
8156
8126
8194
8076
8209
8053
8189
8063
8164
8119
8116
8166
8050
8214
8017
8244
8019
8222
8046
8181
8093
8128
8137
8092
8165
8093
8159
8119
8134
8181
8084
8222
8048
8256
8043
8248
8071
8228
8141
8191
8201
8130
8236
8090
8254
8088
8212
8109
8193
8178
8135
8203
8096
8197
8084
8159
8108
8105
8175
8053
8223
8018
8251
8008
8232
8021
8194
8077
8148
8138
8096
8168
8075
8170
8096
8147
8124
8104
8181
8071
8223
8057
8223
8068
8198
8122
8161
8192
8112
8253
8072
8280
8063
8273
8093
8228
8137
8176
8191
8132
8203
8119
8186
8126
8136
8171
8075
8205
8027
8245
8012
8234
8034
8202
8080
8151
8137
8091
8183
8061
8202
8061
8179
8087
8142
8131
8109
8172
8079
8201
8084
8178
8111
8139
8189
8086
8243
8056
8288
8054
8292
8073
8249
8118
8200
8168
8159
8200
8115
8204
8120
8164
8150
8112
8186
8057
8220
8029
8211
8042
8188
8081
8139
8142
8080
8194
8033
8214
8023
8226
8049
8180
8090
8130
8133
8101
8164
8090
8174
8112
8120
8147
8067
8207
8037
8264
8031
8274
8052
8244
8109
8209
8169
8147
8209
8105
8235
8103
8244
8143
8195
8194
8145
8241
8106
8226
8087
8198
8106
8137
8148
8065
8195
8008
8221
7991
8230
8018
8204
8065
8161
8124
8120
8153
8089
8172
8107
8147
8136
8108
8188
8069
8233
8041
8255
8051
8222
8098
8192
8175
8149
8228
8093
8252
8069
8256
8091
8221
8125
8182
8183
8119
8181
8100
8181
8103
8125
8142
8075
8196
8022
8227
7999
8246
8012
8208
8045
8172
8109
8111
8164
8081
8186
8068
8171
8096
8132
8128
8089
8178
8064
8211
8061
8198
8103
8167
8161
8124
8228
8078
8287
8060
8287
8067
8257
8098
8210
8158
8162
8193
8122
8187
8114
8157
8136
8104
8181
8055
8221
8024
8245
8023
8211
8058
8171
8116
8116
8174
8068
8220
8068
8240
8082
8206
8115
8141
8154
8109
8184
8089
8191
8107
8161
8151
8101
8216
8055
8271
8043
8296
8061
8284
8096
8231
8150
8173
8188
8120
8224
8116
8217
8126
8148
8154
8098
8176
8046
8199
8037
8188
8062
8160
8124
8094
8179
8048
8210
8021
8240
8021
8204
8058
8169
8106
8114
8154
8092
8156
8091
8149
8129
8112
8188
8071
8246
8044
8268
8052
8257
8087
8230
8150
8171
8201
8113
8229
8088
8240
8099
8220
8127
8154
8157
8098
8175
8065
8170
8068
8139
8104
8078
8164
8033
8223
8015
8256
8011
8230
8039
8194
8100
8157
8174
8126
8201
8105
8201
8143
8183
8190
8119
8222
8072
8247
8063
8243
8085
8216
8153
8165
8211
8107
8255
8072
8278
8070
8253
8098
8209
8146
8152
8182
8111
8180
8095
8146
8110
8098
8164
8046
8208
8011
8244
8005
8223
8025
8188
8077
8129
8136
8079
8173
8052
8174
8058
8157
8101
8126
8145
8084
8186
8073
8201
8078
8171
8132
8133
8200
8091
8249
8053
8289
8055
8279
8074
8242
8147
8204
8191
8150
8214
8119
8188
8122
8136
8138
8073
8188
8034
8221
8013
8213
8041
8180
8087
8133
8145
8073
8193
8038
8221
8037
8212
8072
8162
8113
8121
8154
8097
8183
8098
8181
8151
8147
8196
8097
8251
8060
8297
8050
8299
8079
8258
8133
8198
8180
8149
8216
8107
8240
8111
8205
8135
8146
8161
8087
8185
8058
8189
8053
8171
8094
8125
8156
8056
8201
8011
8231
8006
8222
8033
8195
8079
8141
8124
8098
8160
8085
8166
8111
8132
8147
8093
8199
8054
8258
8050
8248
8071
8239
8135
8185
8185
8136
8229
8086
8263
8093
8260
8110
8217
8145
8152
8175
8110
8184
8081
8162
8090
8111
8159
8066
8203
8018
8248
8006
8252
8025
8215
8068
8158
8111
8099
8160
8062
8169
8076
8161
8113
8132
8165
8085
8205
8051
8218
8069
8202
8108
8172
8184
8133
8248
8084
8291
8063
8283
8077
8242
8118
8199
8183
8146
8199
8117
8179
8125
8141
8159
8083
8198
8039
8235
8016
8234
8022
8211
8058
8156
8121
8093
8180
8061
8206
8054
8191
8080
8167
8130
8123
8169
8093
8195
8081
8181
8112
8157
8176
8092
8228
8065
8284
8051
8294
8061
8256
8096
8203
8157
8160
8203
8129
8217
8113
8182
8140
8145
8184
8084
8200
8041
8213
8042
8197
8070
8148
8131
8082
8184
8036
8218
8019
8231
8038
8200
8075
8145
8121
8101
8160
8097
8169
8108
8142
8153
8097
8205
8064
8259
8048
8280
8062
8272
8109
8228
8169
8171
8211
8115
8238
8098
8243
8119
8196
8138
8132
8172
8088
8199
8071
8178
8086
8148
8149
8090
8196
8038
8234
8013
8262
8031
8229
8059
8174
8105
8118
8161
8084
8164
8087
8158
8115
8117
8163
8077
8212
8054
8252
8052
8228
8092
8200
8160
8149
8221
8098
8257
8071
8268
8083
8247
8122
8192
8154
8132
8178
8102
8174
8100
8143
8146
8090
8181
8038
8222
8002
8240
8001
8204
8035
8170
8089
8127
8155
8075
8179
8062
8181
8085
8156
8128
8112
8166
8079
8201
8065
8196
8089
8173
8152
8132
8224
8089
8289
8068
8302
8066
8276
8101
8229
8150
8179
8190
8126
8194
8109
8168
8122
8118
8181
8072
8214
8035
8245
8030
8222
8058
8179
8112
8120
8170
8068
8207
8031
8209
8040
8178
8075
8146
8128
8111
8163
8090
8187
8104
8162
8147
8111
8203
8064
8265
8052
8294
8058
8286
8090
8237
8136
8186
8194
8128
8224
8114
8228
8120
8176
8150
8120
8164
8072
8188
8044
8197
8062
8163
8103
8108
8170
8046
8213
8016
8243
8019
8220
8046
8183
8099
8132
8150
8107
8173
8107
8172
8123
8131
8176
8086
8230
8060
8265
8064
8273
8088
8235
8144
8179
8195
8127
8239
8101
8269
8107
8253
8135
8187
8157
8119
8173
8071
8158
8050
8119
8080
8070
8139
8024
8199
7997
8236
7999
8235
8040
8217
8102
8173
8173
8136
8212
8116
8228
8119
8189
8161
8130
8203
8076
8231
8061
8232
8080
8213
8144
8174
8211
8124
8261
8072
8284
8062
8268
8088
8223
8131
8155
8157
8108
8168
8091
8149
8105
8110
8152
8060
8201
8021
8235
8005
8228
8026
8192
8066
8137
8141
8084
8173
8053
8194
8048
8171
8088
8140
8135
8100
8168
8075
8189
8084
8183
8135
8139
8198
8100
8255
8069
8297
8055
8292
8072
8250
8120
8206
8181
8158
8211
8128
8205
8118
8153
8128
8092
8160
8053
8220
8026
8216
8038
8185
8078
8136
8146
8078
8197
8038
8226
8028
8223
8046
8181
8093
8137
8141
8100
8171
8092
8162
8107
8132
8173
8092
8226
8060
8282
8054
8298
8071
8259
8124
8201
8169
8150
8215
8105
8247
8108
8227
8124
8167
8158
8115
8176
8065
8190
8062
8174
8090
8133
8152
8067
8200
8016
8227
8005
8250
8024
8206
8071
8163
8120
8112
8153
8092
8168
8105
8149
8140
8113
8193
8077
8246
8054
8265
8079
8243
8136
8204
8187
8160
8233
8097
8271
8083
8273
8105
8227
8129
8164
8167
8113
8168
8086
8153
8088
8121
8143
8077
8197
8035
8233
8000
8247
8015
8215
8057
8174
8106
8111
8164
8077
8190
8079
8175
8104
8143
8151
8100
8184
8065
8214
8076
8212
8110
8177
8188
8144
8244
8083
8290
8055
8275
8061
8262
8106
8209
8166
8165
8200
8122
8182
8113
8145
8134
8103
8185
8054
8222
8023
8230
8032
8219
8059
8171
8130
8118
8177
8060
8209
8045
8214
8064
8177
8103
8137
8153
8102
8175
8092
8189
8106
8169
8173
8108
8229
8073
8286
8060
8307
8063
8281
8097
8222
8156
8170
8199
8128
8217
8111
8190
8123
8147
8150
8091
8172
8051
8200
8042
8198
8062
8142
8119
8091
8174
8039
8224
8015
8241
8027
8211
8061
8171
8112
8106
8154
8096
8175
8100
8152
8126
8106
8194
8074
8251
8050
8284
8067
8281
8097
8222
8147
8158
8196
8106
8235
8089
8250
8098
8211
8127
8153
8162
8102
8184
8073
8180
8083
8146
8137
8092
8188
8052
8233
8020
8264
8017
8237
8050
8191
8100
8140
8152
8095
8183
8084
8164
8113
8136
8151
8090
8200
8065
8242
8050
8233
8096
8213
8166
8161
8213
8097
8255
8070
8278
8073
8262
8116
8220
8152
8151
8185
8110
8170
8093
8142
8113
8093
8171
8050
8210
8006
8237
8007
8218
8029
8178
8085
8129
8148
8081
8192
8061
8199
8073
8165
8109
8130
8161
8098
8191
8070
8188
8088
8172
8149
8139
8211
8102
8284
8064
8300
8066
8293
8096
8242
8150
8201
8194
8139
8201
8108
8182
8115
8132
8147
8086
8195
8045
8224
8033
8223
8051
8180
8098
8135
8158
8065
8206
8030
8217
8031
8199
8065
8154
8112
8124
8163
8098
8171
8088
8168
8126
8137
8199
8089
8249
8064
8298
8055
8290
8078
8246
8128
8198
8200
8157
8232
8113
8235
8106
8196
8123
8129
8155
8082
8179
8047
8187
8060
8156
8092
8122
8160
8058
8214
8032
8265
8026
8248
8043
8205
8083
8148
8138
8109
8165
8095
8164
8113
8132
8163
8099
8216
8062
8259
8059
8280
8087
8257
8146
8199
8194
8141
8244
8101
8272
8091
8250
8099
8189
8133
8131
8163
8084
8168
8063
8154
8101
8114
8164
8065
8213
8028
8250
8007
8253
8030
8221
8079
8164
8133
8102
8170
8080
8192
8083
8159
8116
8124
8157
8079
8201
8059
8229
8074
8218
8142
8188
8207
8136
8258
8079
8291
8062
8289
8087
8262
8132
8203
8185
8148
8197
8111
8168
8103
8122
8132
8082
8188
8037
8235
8011
8233
8021
8206
8070
8162
8133
8091
8177
8052
8198
8046
8189
8070
8156
8112
8122
8163
8092
8177
8079
8182
8114
8156
8193
8109
8245
8073
8291
8047
8284
8050
8246
8096
8208
8168
8170
8209
8123
8216
8114
8176
8126
8126
8153
8072
8200
8040
8219
8048
8203
8084
8155
8141
8086
8187
8038
8228
8016
8235
8034
8194
8073
8150
8126
8116
8158
8083
8158
8095
8133
8152
8104
8205
8077
8273
8057
8299
8080
8280
8103
8215
8168
8167
8220
8128
8273
8121
8252
8117
8190
8140
8125
8167
8072
8173
8065
8177
8091
8142
8146
8075
8191
8022
8227
7994
8233
8005
8203
8040
8161
8096
8114
8143
8087
8165
8095
8160
8121
8118
8162
8075
8231
8059
8259
8076
8251
8129
8226
8188
8172
8244
8111
8283
8093
8293
8107
8264
8138
8198
8157
8130
8169
8085
8156
8089
8128
8125
8087
8184
8033
8221
8004
8239
8007
8213
8035
8172
8092
8127
8152
8072
8188
8058
8186
8089
8159
8127
8109
8167
8072
8196
8073
8204
8104
8194
8179
8152
8243
8095
8287
8066
8300
8065
8281
8099
8229
8166
8179
8194
8124
8182
8103
8155
8115
8108
8153
8060
8204
8030
8224
8025
8210
8040
8168
8108
8116
8170
8056
8203
8030
8215
8039
8187
8084
8148
8135
8108
8164
8081
8182
8097
8167
8160
8138
8227
8086
8299
8081
8317
8071
8301
8093
8235
8149
8184
8202
8144
8225
8106
8210
8095
8151
8120
8089
8149
8051
8182
8038
8186
8055
8153
8099
8089
8167
8046
8210
8006
8246
8022
8240
8052
8195
8112
8156
8169
8118
8183
8103
8167
8127
8127
8186
8088
8244
8062
8281
8072
8284
8091
8237
8156
8182
8208
8133
8243
8096
8274
8102
8245
8129
8189
8154
8109
8163
8068
8176
8082
8150
8114
8092
8168
8045
8218
8008
8245
7998
8226
8030
8194
8076
8141
8138
8088
8163
8074
8177
8099
8148
8136
8103
8173
8074
8240
8069
8250
8099
8227
8157
8175
8220
8125
8260
8074
8294
8078
8288
8105
8231
8137
8177
8172
8108
8167
8088
8139
8104
8109
8156
8053
8197
8016
8235
8004
8225
8023
8188
8078
8141
8132
8074
8180
8052
8203
8062
8181
8091
8147
8143
8105
8177
8094
8213
8110
8198
8165
8172
8221
8133
8291
8085
8311
8066
8296
8076
8246
8121
8201
8177
8138
8197
8105
8174
8091
8133
8120
8093
8167
8049
8196
8030
8217
8053
8193
8098
8137
8152
8070
8200
8029
8224
8024
8218
8046
8175
8094
8130
8142
8094
8162
8089
8159
8120
8152
8180
8115
8269
8095
8320
8084
8321
8097
8274
8146
8232
8204
8172
8234
8112
8234
8095
8201
8101
8137
8130
8086
8157
8063
8184
8061
8174
8089
8103
8138
8051
8190
8008
8228
8000
8238
8020
8202
8065
8155
8113
8112
8169
8093
8178
8107
8143
8142
8112
8212
8088
8270
8084
8287
8101
8258
8142
8204
8189
8145
8235
8096
8274
8092
8268
8096
8215
8128
8149
8157
8105
8160
8072
8151
8088
8111
8144
8057
8182
8014
8217
7989
8219
7997
8196
8038
8148
8094
8102
8156
8065
8187
8071
8173
8106
8141
8149
8101
8204
8098
8247
8110
8244
8165
8225
8224
8168
8275
8097
8302
8078
8308
8087
8277
8121
8209
8166
8151
8183
8106
8169
8089
8127
8112
8082
8166
8035
8199
8006
8212
8013
8193
8061
8155
8122
8092
8173
8046
8200
8035
8189
8053
8160
8093
8133
8144
8090
8174
8088
8189
8125
8172
8187
8138
8255
8096
8301
8060
8313
8068
8286
8110
8235
8175
8190
8214
8127
8218
8096
8177
8097
8133
8133
8083
8174
8044
8200
8033
8180
8053
8138
8126
8088
8182
8038
8224
8017
8246
8027
8202
8055
8160
8111
8119
8150
8090
8173
8098
8148
8143
8120
8201
8087
8257
8058
8294
8074
8289
8111
8224
8156
8165
8217
8120
8250
8097
8243
8097
8206
8119
8129
8141
8081
8167
8068
8179
8091
8152
8138
8084
8181
8036
8225
8010
8253
8009
8226
8042
8181
8088
8118
8149
8099
8186
8092
8171
8115
8137
8163
8113
8220
8079
8266
8087
8282
8137
8236
8184
8169
8236
8109
8287
8085
8294
8089
8268
8108
8206
8138
8131
8156
8084
8152
8076
8127
8109
8088
8156
8033
8203
8001
8231
8005
8230
8038
8185
8079
8127
8135
8069
8182
8058
8191
8068
8169
8121
8136
8159
8094
8187
8085
8209
8125
8207
8178
8176
8247
8116
8293
8076
8312
8071
8297
8101
8256
8162
8205
8203
8148
8206
8103
8158
8090
8109
8130
8065
8189
8025
8208
8014
8198
8033
8162
8077
8106
8138
8049
8188
8022
8204
8025
8201
8072
8174
8122
8131
8166
8098
8176
8103
8184
8150
8158
8225
8115
8289
8083
8318
8072
8301
8080
8248
8136
8202
8194
8147
8224
8107
8240
8101
8181
8114
8124
8151
8087
8218
8075
8212
8082
8172
8097
8101
8155
8046
8210
8013
8239
8008
8235
8030
8190
8076
8137
8134
8105
8163
8091
8162
8107
8141
8173
8100
8224
8087
8283
8082
8299
8101
8249
8146
8192
8197
8136
8244
8098
8277
8096
8259
8108
8196
8129
8115
8144
8076
8163
8072
8147
8102
8110
8160
8050
8194
8010
8241
7999
8229
8021
8211
8071
8153
8131
8099
8173
8082
8195
8088
8161
8120
8130
8166
8090
8229
8080
8254
8111
8239
8158
8192
8210
8133
8258
8084
8292
8066
8294
8092
8244
8119
8182
8147
8109
8158
8080
8151
8097
8118
8136
8074
8182
8024
8212
8004
8219
8020
8190
8059
8145
8130
8095
8182
8067
8220
8066
8219
8078
8158
8118
8122
8158
8092
8204
8111
8211
8168
8191
8222
8139
8283
8094
8315
8064
8308
8083
8279
8119
8221
8166
8153
8192
8104
8195
8091
8157
8110
8112
8147
8056
8181
8031
8198
8034
8169
8061
8136
8128
8074
8187
8030
8213
8010
8220
8026
8191
8080
8149
8139
8110
8166
8098
8190
8116
8166
8175
8129
8239
8090
8293
8079
8309
8086
8267
8105
8224
8174
8167
8213
8099
8227
8077
8191
8083
8142
8103
8088
8138
8064
8168
8058
8164
8082
8132
8135
8074
8200
8032
8238
8013
8263
8036
8230
8063
8177
8115
8126
8170
8104
8174
8094
8166
8123
8130
8196
8097
8256
8089
8287
8105
8287
8142
8225
8189
8165
8240
8102
8277
8080
8271
8080
8223
8106
8159
8129
8098
8152
8071
8149
8081
8123
8117
8078
8178
8034
8225
8008
8250
8011
8222
8046
8181
8096
8126
8158
8073
8189
8066
8177
8075
8139
8118
8110
8180
8094
8220
8101
8228
8145
8213
8197
8159
8247
8093
8283
8065
8303
8070
8286
8100
8215
8145
8153
8168
8093
8161
8080
8142
8105
8102
8153
8055
8197
8028
8210
8015
8199
8049
8163
8103
8095
8158
8049
8196
8034
8215
8053
8204
8094
8162
8138
8119
8182
8109
8210
8132
8208
8206
8180
8284
8133
8309
8089
8319
8076
8304
8104
8244
8160
8188
8200
8127
8218
8089
8184
8088
8136
8108
8093
8156
8057
8179
8044
8188
8060
8151
8117
8094
8170
8048
8216
8025
8245
8021
8221
8050
8187
8102
8137
8150
8103
8171
8095
8164
8132
8133
8187
8091
8252
8078
8293
8081
8287
8103
8241
8161
8190
8216
8142
8250
8094
8260
8090
8211
8095
8144
8131
8102
8154
8064
8157
8075
8144
8109
8099
8170
8042
8219
8012
8248
7997
8229
8033
8193
8081
8142
8148
8096
8186
8083
8174
8096
8151
8133
8111
8195
8082
8251
8086
8253
8112
8234
8172
8186
8224
8129
8269
8080
8303
8081
8289
8112
8249
8162
8175
8168
8102
8167
8097
8152
8120
8114
8157
8064
8200
8013
8229
8002
8225
8030
8188
8071
8138
8148
8080
8189
8067
8213
8069
8188
8099
8152
8143
8109
8187
8091
8209
8112
8204
8172
8174
8227
8115
8282
8068
8301
8061
8300
8090
8256
8121
8187
8172
8127
8181
8086
8164
8086
8127
8114
8079
8157
8035
8183
8015
8200
8039
8170
8081
8128
8150
8081
8214
8047
8234
8035
8235
8058
8188
8106
8138
8147
8100
8168
8099
8188
8135
8164
8205
8119
8274
8095
8310
8067
8306
8088
8268
8139
8221
8199
8157
8227
8103
8225
8090
8185
8096
8131
8135
8091
8162
8057
8180
8052
8148
8075
8092
8140
8057
8201
8018
8225
8003
8238
8024
8199
8071
8158
8129
8120
8174
8091
8174
8113
8163
8162
8126
8226
8104
8281
8093
8293
8098
8254
8141
8201
8199
8149
8248
8102
8279
8085
8265
8088
8198
8100
8122
8124
8076
8143
8063
8142
8094
8108
8146
8064
8191
8019
8243
8001
8248
8019
8207
8062
8162
8109
8109
8171
8078
8197
8082
8175
8097
8141
8148
8116
8225
8102
8263
8114
8243
8161
8202
8212
8139
8252
8090
8300
8073
8306
8084
8259
8103
8193
8130
8120
8150
8084
8153
8085
8127
8115
8089
8176
8038
8210
8008
8215
8015
8203
8060
8154
8124
8098
8182
8063
8219
8050
8226
8071
8196
8115
8135
8158
8108
8186
8100
8207
8156
8189
8212
8154
8259
8090
8294
8060
8310
8067
8284
8110
8222
8151
8157
8188
8099
8191
8081
8162
8092
8118
8127
8074
8171
8036
8193
8040
8186
8071
8138
8126
8078
8183
8037
8223
8013
8230
8023
8206
8068
8170
8125
8121
8159
8099
8181
8123
8179
8177
8143
8227
8106
8285
8076
8304
8083
8279
8107
8230
8171
8171
8213
8102
8230
8077
8236
8079
8164
8095
8118
8137
8082
8169
8066
8183
8094
8152
8135
8071
8174
8024
8225
8002
8259
8021
8243
8062
8202
8113
8146
8169
8100
8189
8087
8170
8114
8145
8182
8118
8241
8094
8276
8108
8279
8143
8225
8186
8171
8239
8109
8293
8088
8290
8079
8254
8095
8179
8115
8110
8132
8069
8141
8067
8121
8100
8077
8161
8032
8205
8002
8231
8008
8219
8037
8186
8096
8136
8159
8076
8196
8057
8201
8080
8166
8120
8147
8190
8124
8236
8112
8232
8137
8219
8199
8182
8258
8117
8315
8102
8335
8091
8313
8100
8237
8146
8170
8161
8097
8165
8077
8148
8096
8115
8135
8074
8186
8037
8208
8026
8206
8043
8169
8095
8112
8156
8053
8204
8037
8243
8049
8216
8077
8177
8128
8128
8162
8098
8178
8100
8181
8160
8152
8220
8099
8269
8054
8282
8036
8276
8094
8254
8160
8207
8205
8143
8220
8094
8215
8089
8168
8117
8127
8145
8076
8175
8048
8186
8058
8155
8104
8112
8170
8058
8217
8010
8240
8004
8229
8041
8199
8098
8153
8143
8114
8171
8103
8165
8123
8154
8191
8127
8265
8114
8313
8104
8297
8109
8251
8153
8187
8200
8124
8241
8076
8254
8069
8229
8075
8152
8105
8090
8136
8060
8146
8063
8155
8101
8095
8154
8041
8199
8010
8243
7999
8234
8031
8215
8086
8164
8152
8108
8191
8084
8199
8087
8164
8127
8140
8188
8114
8252
8105
8275
8123
8242
8170
8190
8218
8134
8272
8086
8307
8077
8292
8088
8236
8122
8175
8149
8104
8154
8079
8147
8102
8123
8138
8068
8181
8017
8220
8000
8206
8013
8179
8055
8130
8128
8070
8179
8049
8219
8061
8205
8091
8167
8128
8129
8178
8109
8218
8121
8220
8177
8195
8235
8140
8281
8076
8306
8066
8293
8070
8260
8115
8197
8155
8140
8183
8082
8171
8071
8143
8099
8094
8149
8056
8181
8031
8196
8040
8177
8079
8135
8143
8075
8197
8027
8230
8022
8234
8046
8203
8092
8165
8147
8120
8175
8106
8186
8122
8173
8193
8134
8266
8100
8300
8080
8304
8077
8262
8129
8220
8184
8162
8218
8106
8243
8089
8207
8090
8157
8131
8116
8168
8089
8192
8073
8175
8087
8111
8133
8058
8189
8017
8224
8000
8242
8010
8216
8071
8173
8115
8121
8168
8096
8174
8104
8173
8143
8131
8210
8106
8267
8095
8287
8097
8258
8142
8210
8194
8159
8252
8099
8279
8066
8265
8067
8211
8090
8146
8118
8084
8138
8064
8152
8088
8113
8121
8068
8177
8025
8221
8004
8241
8003
8210
8051
8168
8122
8119
8174
8081
8199
8060
8175
8085
8159
8146
8140
8215
8130
8266
8127
8249
8166
8212
8204
8146
8252
8093
8300
8067
8306
8071
8264
8085
8193
8118
8129
8163
8090
8171
8087
8145
8115
8098
8153
8046
8194
8015
8208
8020
8201
8049
8157
8116
8092
8166
8051
8215
8040
8240
8059
8202
8089
8145
8133
8112
8185
8101
8208
8137
8197
8204
8157
8259
8111
8314
8084
8328
8090
8321
8146
8270
8189
8200
8206
8111
8206
8077
8173
8078
8138
8112
8089
8147
8052
8169
8032
8180
8068
8142
8120
8091
8188
8042
8224
8012
8247
8031
8231
8065
8195
8118
8132
8150
8103
8175
8110
8167
8144
8150
8214
8118
8279
8083
8301
8082
8282
8106
8225
8159
8177
8214
8111
8228
8067
8227
8049
8177
8078
8124
8113
8086
8156
8071
8161
8080
8129
8102
8079
8179
8038
8226
8008
8251
8007
8223
8036
8189
8096
8140
8154
8091
8192
8080
8187
8108
8167
8157
8134
8219
8106
8265
8099
8261
8122
8229
8175
8171
8238
8109
8289
8076
8289
8066
8266
8085
8201
8114
8124
8139
8090
8147
8075
8132
8091
8089
8139
8038
8190
8009
8224
8004
8220
8040
8197
8098
8145
8167
8090
8208
8068
8223
8078
8205
8116
8176
8182
8133
8231
8132
8237
8151
8233
8194
8171
8218
8086
8252
8050
8296
8059
8296
8085
8240
8121
8179
8162
8100
8169
8074
8165
8090
8134
8122
8084
8171
8054
8208
8034
8204
8052
8172
8087
8112
8144
8058
8202
8021
8227
8030
8239
8075
8198
8108
8134
8143
8104
8184
8111
8195
8161
8171
8223
8125
8271
8075
8301
8064
8298
8090
8250
8138
8195
8182
8133
8209
8079
8203
8058
8163
8087
8123
8124
8081
8155
8052
8174
8054
8153
8090
8100
8158
8055
8210
8021
8246
8004
8247
8036
8213
8095
8179
8162
8126
8193
8118
8195
8133
8177
8189
8135
8252
8115
8283
8090
8287
8099
8247
8150
8187
8201
8135
8244
8086
8268
8072
8259
8078
8191
8100
8118
8138
8087
8166
8074
8145
8100
8104
8145
8058
8204
8021
8240
7998
8232
8016
8204
8066
8162
8142
8111
8193
8086
8223
8094
8188
8123
8153
8166
8128
8240
8116
8262
8116
8237
8167
8196
8211
8139
8266
8085
8305
8068
8291
8067
8241
8089
8170
8125
8104
8157
8079
8154
8090
8128
8118
8076
8173
8036
8205
8009
8212
8019
8186
8068
8152
8136
8091
8187
8057
8221
8048
8225
8068
8181
8114
8147
8170
8118
8217
8128
8222
8162
8189
8204
8120
8248
8074
8294
8046
8289
8057
8247
8088
8194
8139
8112
8160
8069
8166
8064
8145
8085
8110
8128
8077
8174
8047
8200
8043
8182
8076
8139
8144
8091
8213
8055
8244
8030
8259
8042
8216
8078
8177
8138
8124
8170
8123
8207
8145
8204
8206
8177
8271
8119
8300
8090
8310
8102
8299
8140
8240
8189
8170
8225
8101
8236
8076
8229
8074
8166
8094
8107
8130
8064
8153
8055
8163
8077
8135
8128
8073
8191
8021
8215
7988
8236
8007
8222
8051
8179
8107
8122
8156
8085
8166
8089
8173
8128
8160
8205
8129
8258
8109
8290
8111
8260
8140
8222
8192
8158
8241
8104
8278
8065
8279
8065
8229
8081
8170
8114
8106
8145
8084
8159
8088
8130
8108
8084
8164
8035
8212
8008
8241
8015
8219
8045
8176
8116
8131
8173
8077
8193
8047
8186
8076
8172
8123
8142
8174
8120
8230
8112
8234
8129
8204
8182
8152
8243
8097
8288
8069
8309
8065
8283
8099
8219
8118
8151
8159
8101
8181
8090
8162
8111
8130
8156
8080
8199
8038
8217
8032
8210
8057
8172
8108
8107
8166
8057
8210
8032
8224
8040
8204
8070
8152
8111
8125
8176
8105
8203
8126
8200
8180
8156
8231
8103
8286
8085
8318
8084
8318
8120
8265
8167
8198
8197
8119
8205
8071
8190
8069
8151
8101
8106
8139
8065
8176
8050
8185
8060
8155
8119
8097
8168
8043
8216
8010
8247
8012
8240
8048
8208
8103
8152
8141
8110
8173
8111
8175
8136
8145
8182
8109
8221
8066
8263
8047
8247
8076
8209
8137
8181
8208
8139
8255
8096
8277
8099
8259
8115
8190
8143
8124
8164
8089
8174
8094
8171
8122
8114
8179
8061
8221
8020
8261
8010
8231
8031
8198
8076
8145
8141
8089
8182
8073
8195
8092
8169
8125
8136
8202
8120
8262
8120
8276
8118
8226
8158
8169
8206
8106
8267
8080
8297
8057
8266
8060
8197
8086
8133
8119
8092
8155
8081
8141
8088
8100
8119
8053
8178
8016
8224
8002
8204
8002
8155
8044
8110
8101
8052
8168
8038
8194
8024
8165
8052
8131
8116
8119
8181
8119
8249
8155
8241
8186
8169
8182
8047
8177
7956
8143
7922
8146
7921
8101
7990
8089
8068
8064
8125
8073
8226
8156
8285
8302
8344
8414
8330
8449
8278
8405
8223
8349
8235
8274
8291
8206
8325
8152
8348
8121
8319
8107
8239
8123
8185
8180
8153
8244
8160
8244
8172
8194
8214
8134
8259
8080
8285
8058
8285
8055
8234
8092
8169
8132
8096
8162
8043
8167
8013
8138
8031
8100
8072
8053
8100
8018
8124
8012
8106
8041
8068
8096
8011
8148
7982
8202
7973
8213
8002
8192
8059
8167
8121
8120
8174
8095
8190
8108
8162
8139
8132
8201
8108
8260
8083
8270
8085
8240
8130
8200
8191
8140
8223
8064
8229
8023
8208
8015
8159
8052
8118
8109
8075
8136
8058
8127
8058
8072
8080
8025
8135
7988
8192
7975
8221
7995
8201
8052
8177
8149
8157
8215
8120
8257
8111
8255
8148
8241
8209
8195
8249
8137
8266
8127
8231
8143
8191
8196
8134
8235
8081
8298
8065
8304
8074
8270
8095
8201
8151
8157
8194
8114
8171
8093
8139
8107
8099
8162
8075
8221
8028
8209
8008
8177
8029
8111
8059
8041
8106
7999
8156
7982
8151
7993
8135
8038
8107
8114
8091
8170
8096
8206
8150
8221
8229
8200
8323
8183
8384
8162
8427
8210
8421
8238
8362
8260
8258
8279
8198
8275
8132
8246
8122
8165
8144
8109
8172
8064
8195
8052
8179
8059
8134
8092
8062
8148
7999
8179
7978
8204
7988
8181
8013
8124
8057
8080
8107
8059
8132
8082
8156
8136
8136
8200
8080
8229
8033
8250
8037
8225
8051
8180
8109
8118
8171
8076
8226
8063
8237
8051
8167
8078
8127
8135
8119
8227
8131
8239
8166
8222
8212
8195
8296
8167
8361
8129
8365
8097
8293
8066
8192
8077
8097
8094
8026
8102
8000
8082
7984
8047
8041
8014
8095
7994
8147
8001
8155
8044
8164
8130
8147
8233
8147
8326
8132
8374
8169
8373
8206
8335
8277
8326
8350
8313
8361
8264
8289
8231
8199
8236
8129
8286
8090
8285
8035
8217
8023
8167
8068
8113
8125
8034
8127
7978
8091
7943
8056
7977
8030
8049
8042
8134
8071
8181
8077
8154
8104
8088
8172
8038
8230
8052
8294
8035
8264
8076
8256
8165
8204
8194
8154
8235
8153
8248
8130
8157
8120
8054
8122
8013
8198
8051
8234
8087
8239
8198
8229
8276
8187
8343
8205
8424
8195
8363
8177
8303
8218
8231
8238
8172
8252
8130
8182
8113
8110
8124
7989
8113
7927
8131
7916
8137
7950
8126
8001
8061
8054
8038
8136
8040
8191
8078
8184
8119
8196
8249
8244
8340
8219
8318
8191
8288
8207
8199
8223
8091
8204
7996
8203
7963
8178
7975
8127
7991
8053
8016
7999
8057
7995
8081
8025
8075
8081
8070
8180
8057
8249
8042
8222
8054
8198
8076
8124
8122
8062
8203
8083
8276
8083
8285
8142
8271
8177
8161
8150
8094
8166
8104
8186
8127
8138
8160
8048
8159
7966
8166
7940
8189
7976
8177
8043
8148
8148
8140
8209
8100
8228
8123
8261
8206
8284
8328
8315
8418
8294
8399
8222
8315
8205
8215
8205
8132
8253
8070
8281
8059
8275
8030
8187
8038
8107
8065
8055
8108
8040
8099
8015
8047
8044
8018
8125
8006
8176
8004
8214
8026
8198
8068
8179
8168
8154
8237
8109
8247
8051
8176
8013
8120
8041
8046
8075
8028
8111
8023
8086
8024
8075
8126
8085
8210
8031
8269
8056
8315
8081
8281
8092
8199
8159
8190
8283
8259
8415
8369
8468
8375
8369
8343
8239
8310
8155
8312
8138
8266
8149
8189
8156
8097
8199
8038
8220
8001
8225
8008
8186
8034
8118
8076
8072
8110
8059
8122
8060
8118
8123
8078
8146
8017
8175
7989
8211
8024
8233
8093
8218
8181
8171
8209
8096
8234
8064
8226
8080
8193
8112
8110
8124
8052
8136
8017
8098
8026
8083
8092
8032
8113
7951
8134
7913
8150
7945
8173
8012
8157
8084
8135
8171
8102
8190
8100
8228
8225
8306
8350
8289
8389
8238
8375
8170
8310
8154
8250
8234
8223
8297
8168
8307
8078
8283
8071
8240
8061
8138
8098
8110
8139
8062
8120
8046
8095
8078
8062
8161
8044
8208
8001
8240
8005
8205
8028
8189
8140
8170
8176
8073
8186
8052
8204
8088
8198
8145
8192
8240
8165
8266
8129
8265
8164
8221
8202
8174
8252
8109
8296
8073
8303
8043
8228
8028
8165
8062
8093
8108
8063
8139
8059
8123
8068
8069
8071
7984
8081
7922
8109
7950
8121
7950
8049
7983
8008
8065
7984
8131
8004
8256
8109
8331
8222
8364
8355
8386
8428
8345
8394
8282
8319
8253
8233
8300
8185
8363
8164
8382
8118
8325
8095
8230
8086
8140
8128
8074
8190
8093
8210
8072
8148
8085
8090
8124
8042
8140
8024
8168
8045
8117
8047
8052
8126
8007
8158
7947
8160
7949
8168
7997
8173
8091
8165
8160
8098
8130
8081
8167
8144
8208
8245
8180
8284
8106
8282
8070
8282
8090
8238
8140
8152
8134
8041
8162
8025
8215
8067
8266
8143
8257
8200
8199
8227
8125
8195
8100
8166
8122
8139
8211
8114
8252
8041
8265
8008
8229
8013
8195
8083
8151
8111
8060
8110
8014
8119
8019
8116
8076
8093
8133
8058
8157
8006
8133
7987
8101
8020
8048
8105
8068
8248
8076
8284
8056
8293
8144
8349
8318
8422
8432
8415
8430
8311
8362
8289
8301
8308
8212
8318
8154
8330
8081
8275
8035
8194
8049
8096
8069
8011
8088
7955
8096
7941
8087
7971
8053
8033
8020
8065
8005
8117
8057
8200
8183
8219
8271
8196
8361
8199
8428
8203
8441
8210
8369
8164
8200
8137
8101
8138
8061
8150
8047
8112
8081
8064
8092
7991
8096
7936
8096
7935
8064
7960
8005
8003
7944
8052
7912
8107
7932
8145
7998
8211
8183
8287
8264
8227
8294
8233
8311
8255
8289
8321
8278
8377
8200
8363
8095
8291
8018
8183
8008
8094
8057
8047
8105
8017
8162
8069
8253
8170
8272
8232
8224
8273
8178
8326
8200
8273
8154
8176
8177
8087
8199
8018
8218
7986
8225
7991
8180
8021
8115
8048
8049
8081
8009
8097
8022
8085
8061
8057
8091
7983
8111
7993
8240
8109
8293
8149
8214
8179
8176
8302
8178
8340
8146
8360
8165
8325
8181
8214
8180
8160
8249
8163
8282
8205
8226
8197
8111
8193
8038
8227
8011
8256
8018
8229
8062
8175
8098
8110
8154
8072
8189
8064
8177
8060
8142
8108
8085
8128
8024
8116
7985
8083
7989
8051
8031
7997
8086
7938
8132
7952
8228
8041
8265
8107
8256
8213
8244
8301
8253
8299
8205
8273
8222
8230
8301
8193
8297
8066
8247
8051
8243
8097
8202
8140
8141
8200
8086
8231
8056
8222
8035
8165
8065
8127
8125
8096
8156
8063
8123
8033
8066
8038
8005
8115
7999
8176
7939
8158
7930
8157
7989
8189
8165
8265
8303
8227
8316
8175
8303
8208
8288
8273
8248
8323
8238
8331
8138
8259
8089
8165
8123
8095
8189
8060
8218
8013
8244
8019
8230
8066
8211
8157
8192
8196
8138
8205
8123
8194
8143
8136
8202
8098
8259
8088
8307
8100
8324
8141
8264
8171
8167
8159
8040
8159
8011
8204
8046
8167
8054
8090
8058
8009
8064
7975
8069
8000
8072
8037
8013
8083
7966
8166
7975
8228
7999
8257
8113
8336
8290
8355
8329
8253
8326
8205
8306
8212
8277
8253
8203
8272
8127
8278
8107
8276
8124
8239
8170
8161
8179
8037
8154
7950
8131
7918
8108
7950
8066
7980
8013
8037
7994
8077
8025
8123
8127
8128
8142
8017
8155
7998
8234
8016
8235
8045
8223
8120
8172
8153
8063
8150
8027
8205
8076
8211
8143
8224
8209
8192
8281
8202
8332
8242
8362
8357
8374
8420
8277
8376
8136
8340
8065
8271
8050
8199
8068
8139
8124
8104
8168
8065
8143
8067
8112
8082
8047
8116
7990
8126
7943
8092
7931
8070
7977
8014
8031
7942
8076
7940
8154
7986
8211
8091
8274
8210
8258
8261
8216
8312
8285
8389
8369
8396
8438
8341
8427
8201
8371
8102
8308
8067
8222
8070
8125
8057
8013
8076
7961
8069
7954
8085
8029
8109
8145
8144
8262
8126
8230
8096
8185
8081
8054
8054
7950
8078
7905
8100
7882
8119
7950
8166
8063
8202
8212
8224
8283
8196
8282
8235
8289
8284
8235
8311
8168
8355
8167
8356
8171
8338
8214
8247
8214
8140
8221
8057
8224
8034
8246
8085
8198
8086
8090
8065
7992
8051
7939
7977
7907
7945
7993
7930
8035
7843
8050
7853
8114
7962
8228
8165
8285
8263
8284
8366
8296
8445
8342
8442
8375
8411
8395
8295
8336
8171
8296
8132
8246
8162
8202
8213
8152
8253
8064
8247
8011
8239
8019
8186
8040
8109
8057
8046
8089
8031
8103
8033
8074
8055
8019
8090
7982
8141
7968
8178
7980
8156
8020
8114
8076
8055
8138
8029
8189
8007
8157
8028
8154
8102
8150
8190
8150
8248
8139
8234
8188
8247
8303
8244
8357
8185
8382
8132
8335
8053
8229
8026
8111
8036
8042
8076
8010
8099
8010
8116
8056
8093
8102
8059
8164
8052
8208
8050
8183
8058
8104
8063
7999
8064
7893
8066
7894
8140
8006
8268
8181
8317
8271
8260
8283
8226
8360
8366
8465
8480
8458
8501
8361
8506
8281
8440
8182
8347
8155
8243
8164
8144
8170
8043
8172
8018
8167
8033
8134
8057
8072
8092
8024
8099
8000
8089
7995
8033
8013
7966
8051
7918
8128
7930
8166
7944
8144
7983
8152
8131
8230
8257
8146
8209
8093
8210
8181
8239
8267
8210
8348
8222
8336
8125
8284
8134
8206
8141
8099
8166
8023
8182
8000
8210
8011
8212
8091
8211
8163
8139
8162
8094
8158
8082
8142
8130
8117
8195
8059
8215
7999
8207
7989
8199
8018
8156
8056
8072
8078
8008
8108
7971
8091
7963
8061
8007
8050
8102
8045
8154
8085
8243
8189
8317
8338
8316
8368
8219
8366
8130
8361
8111
8320
8104
8256
8184
8233
8238
8182
8231
8134
8207
8130
8162
8190
8110
8215
8051
8206
8012
8189
8018
8141
8055
8043
8054
7958
8089
7938
8132
7987
8193
8080
8208
8198
8209
8268
8227
8338
8283
8332
8283
8258
8318
8190
8344
8111
8329
8059
8270
8046
8202
8071
8137
8142
8088
8180
8050
8156
8042
8122
8050
8049
8068
7994
8101
7979
8112
8005
8107
8064
8076
8144
8045
8207
8005
8220
7980
8211
8019
8172
8069
8136
8131
8117
8216
8154
8255
8192
8214
8242
8198
8312
8173
8383
8178
8342
8135
8254
8145
8170
8167
8086
8193
8026
8197
8027
8204
8077
8160
8108
8106
8137
8082
8172
8096
8172
8119
8116
8179
8087
8242
8057
8289
8043
8273
8054
8226
8088
8159
8127
8089
8165
8065
8188
8078
8167
8136
8151
8189
8106
8242
8090
8267
8131
8257
8164
8164
8142
8022
8149
7953
8134
7908
8095
7908
8074
7974
8053
8074
8097
8176
8124
8199
8149
8218
8309
8309
8443
8288
8391
8122
8320
8116
8281
8145
8215
8197
8156
8243
8121
8292
8136
8304
8172
8255
8200
8198
8234
8137
8239
8127
8213
8158
8171
8204
8113
8247
8057
8269
8017
8257
8018
8198
8041
8139
8092
8093
8137
8054
8132
8026
8084
8034
8035
8074
7989
8119
7975
8123
7963
8099
8024
8115
8161
8123
8204
8020
8214
8032
8273
8083
8251
8120
8195
8188
8189
8271
8188
8277
8199
8231
8243
8189
8285
8123
8320
8083
8299
8057
8228
8066
8169
8116
8089
8165
8059
8193
8048
8175
8065
8138
8113
8109
8161
8100
8218
8093
8189
8104
8159
8169
8089
8196
8021
8222
8000
8243
8015
8219
8065
8186
8124
8129
8173
8113
8207
8128
8207
8165
8162
8210
8109
8246
8072
8259
8078
8242
8104
8191
8170
8135
8211
8063
8236
8041
8215
8030
8192
8069
8126
8094
8078
8131
8068
8151
8082
8123
8131
8086
8188
8041
8229
8005
8253
8023
8238
8066
8191
8130
8141
8180
8109
8227
8101
8246
8140
8227
8202
8168
8240
8140
8267
8132
8249
8147
8208
8181
8138
8216
8063
8241
8018
8244
8008
8217
8048
8165
8091
8116
8143
8093
8159
8082
8147
8108
8102
8147
8055
8195
8019
8209
8014
8204
8053
8169
8115
8120
8179
8075
8220
8053
8251
8082
8247
8139
8213
8197
8166
8240
8155
8258
8176
8218
8208
8162
8239
8093
8278
8047
8284
8037
8248
8048
8191
8094
8155
8180
8122
8217
8084
8180
8084
8142
8117
8095
8166
8073
8201
8052
8198
8075
8162
8118
8111
8184
8057
8235
8035
8262
8032
8249
8071
8202
8126
8181
8208
8149
8242
8154
8228
8188
8186
8222
8131
8280
8092
8294
8070
8268
8076
8206
8110
8128
8145
8054
8186
8032
8198
8042
8173
8075
8139
8123
8090
8153
8067
8177
8079
8151
8115
8102
8176
8053
8233
8033
8273
8024
8261
8052
8206
8090
8163
8173
8125
8224
8129
8253
8158
8216
8201
8172
8254
8125
8277
8101
8271
8123
8232
8170
8165
8201
8082
8227
8030
8223
8007
8197
8029
8153
8073
8110
8117
8077
8139
8066
8136
8094
8096
8138
8052
8191
8021
8239
8018
8236
8055
8217
8112
8172
8176
8129
8236
8116
8270
8119
8259
8149
8214
8212
8171
8257
8137
8249
8138
8223
8176
8171
8214
8092
8244
8039
8266
8011
8241
8022
8185
8055
8124
8105
8078
8135
8051
8123
8049
8101
8090
8077
8159
8049
8230
8061
8244
8081
8216
8133
8182
8203
8122
8242
8066
8261
8047
8251
8078
8215
8148
8196
8211
8166
8252
8164
8250
8188
8205
8236
8137
8279
8083
8300
8055
8294
8058
8221
8070
8145
8123
8084
8170
8053
8192
8054
8164
8073
8117
8120
8080
8135
8038
8154
8050
8148
8087
8124
8152
8069
8217
8039
8258
8017
8254
8034
8216
8095
8197
8172
8164
8217
8146
8243
8153
8205
8190
8148
8232
8103
8277
8085
8284
8082
8236
8120
8173
8155
8094
8194
8034
8212
8031
8204
8036
8158
8077
8118
8123
8085
8156
8074
8151
8096
8107
8150
8073
8197
8031
8254
8012
8243
8004
8204
8057
8164
8130
8136
8199
8114
8253
8132
8269
8192
8240
8226
8169
8265
8134
8279
8124
8256
8170
8203
8201
8122
8223
8044
8241
8017
8245
8033
8213
8069
8173
8126
8120
8156
8085
8147
8082
8129
8130
8101
8188
8061
8232
8029
8247
8042
8219
8080
8178
8142
8123
8195
8074
8230
8076
8249
8104
8243
8158
8204
8214
8154
8244
8137
8224
8159
8189
8204
8146
8239
8062
8268
8030
8275
8025
8223
8043
8159
8090
8107
8152
8065
8153
8051
8136
8072
8106
8122
8072
8162
8035
8195
8042
8186
8071
8152
8141
8095
8190
8039
8222
8019
8246
8039
8226
8079
8197
8160
8176
8226
8162
8255
8167
8229
8210
8184
8241
8122
8303
8092
8312
8081
8263
8086
8195
8133
8132
8182
8073
8195
8036
8179
8049
8155
8080
8110
8134
8076
8160
8061
8174
8085
8137
8128
8090
8202
8049
8249
8031
8273
8028
8231
8051
8190
8100
8123
8158
8105
8206
8115
8201
8133
8155
8177
8118
8240
8098
8269
8092
8259
8138
8232
8181
8168
8216
8081
8228
8032
8245
8051
8242
8079
8183
8124
8130
8154
8110
8190
8112
8170
8146
8145
8216
8093
8262
8044
8271
8032
8238
8049
8197
8110
8136
8147
8080
8202
8080
8237
8104
8222
8157
8191
8211
8125
8226
8102
8233
8123
8203
8163
8135
8203
8071
8239
8023
8254
8008
8224
8051
8209
8105
8156
8146
8085
8149
8064
8140
8089
8120
8135
8076
8191
8035
8206
8014
8209
8053
8175
8117
8135
8171
8072
8210
8041
8256
8078
8276
8125
8221
8169
8158
8194
8128
8208
8124
8201
8170
8145
8200
8087
8244
8026
8254
8012
8238
8027
8184
8066
8131
8136
8094
8188
8078
8213
8101
8198
8133
8142
8169
8102
8225
8073
8200
8069
8166
8122
8129
8178
8070
8234
8047
8290
8058
8287
8088
8254
8157
8218
8205
8186
8258
8166
8253
8185
8200
8211
8145
8260
8098
8286
8074
8274
8076
8215
8112
8136
8147
8067
8180
8031
8196
8022
8182
8046
8138
8094
8096
8135
8068
8150
8067
8134
8091
8090
8142
8041
8203
8012
8257
8018
8263
8038
8222
8089
8174
8163
8139
8220
8124
8250
8137
8239
8167
8182
8217
8134
8271
8110
8272
8127
8243
8169
8191
8210
8120
8245
8057
8266
8043
8260
8056
8218
8091
8146
8120
8078
8132
8064
8136
8080
8111
8125
8068
8184
8032
8231
8025
8240
8044
8214
8070
8144
8127
8086
8195
8076
8220
8074
8235
8110
8204
8153
8153
8205
8116
8218
8103
8199
8153
8173
8205
8114
8249
8063
8276
8023
8259
8022
8208
8066
8161
8112
8105
8155
8074
8164
8073
8136
8100
8104
8144
8058
8182
8035
8208
8055
8199
8104
8162
8158
8095
8205
8049
8247
8051
8276
8073
8257
8127
8211
8195
8166
8235
8145
8234
8153
8194
8199
8138
8262
8103
8290
8060
8283
8049
8225
8071
8169
8127
8109
8173
8065
8199
8051
8179
8066
8141
8112
8106
8154
8069
8170
8059
8171
8091
8134
8143
8077
8201
8037
8244
8016
8260
8033
8234
8087
8208
8154
8177
8220
8149
8244
8153
8238
8179
8173
8223
8126
8268
8094
8282
8082
8239
8101
8177
8140
8094
8182
8039
8206
8011
8226
8051
8208
8085
8148
8126
8113
8161
8091
8171
8099
8150
8155
8108
8206
8050
8246
8024
8272
8038
8245
8069
8200
8128
8144
8183
8104
8230
8111
8245
8119
8201
8164
8163
8219
8116
8247
8117
8246
8142
8199
8180
8133
8213
8055
8238
8011
8245
8019
8219
8046
8167
8083
8096
8108
8050
8121
8050
8113
8071
8075
8122
8031
8169
8013
8218
8032
8227
8081
8195
8143
8146
8200
8093
8253
8100
8293
8126
8292
8186
8258
8226
8207
8267
8169
8261
8179
8233
8217
8185
8254
8101
8274
8047
8276
8019
8228
8032
8184
8081
8123
8138
8068
8168
8054
8159
8068
8129
8102
8089
8140
8045
8175
8036
8181
8058
8156
8116
8099
8177
8051
8219
8014
8248
8032
8255
8086
8234
8165
8195
8210
8157
8241
8150
8219
8170
8176
8218
8135
8272
8086
8281
8056
8251
8064
8195
8094
8126
8148
8067
8187
8041
8190
8037
8163
8059
8122
8110
8090
8155
8070
8163
8079
8152
8117
8109
8182
8054
8226
8027
8266
8022
8257
8052
8227
8135
8187
8192
8154
8229
8145
8265
8168
8240
8204
8163
8247
8127
8279
8115
8280
8120
8232
8154
8152
8176
8069
8212
8018
8213
8009
8218
8039
8172
8076
8106
8116
8080
8141
8074
8139
8098
8109
8162
8075
8215
8034
8251
8028
8249
8054
8223
8101
8174
8170
8134
8223
8101
8258
8112
8260
8152
8213
8199
8156
8235
8123
8247
8131
8225
8163
8161
8201
8089
8230
8026
8249
8000
8228
8018
8188
8066
8143
8103
8084
8141
8060
8146
8070
8123
8110
8082
8157
8051
8187
8021
8208
8044
8183
8089
8143
8159
8081
8209
8049
8265
8063
8280
8112
8261
8174
8218
8235
8189
8265
8162
8253
8188
8205
8231
8134
8268
8076
8274
8031
8261
8033
8209
8060
8152
8126
8093
8168
8063
8186
8050
8162
8075
8131
8122
8081
8154
8047
8184
8063
8174
8094
8130
8155
8076
8216
8038
8260
8020
8265
8045
8227
8095
8199
8174
8176
8216
8145
8243
8142
8189
8178
8147
8234
8107
8282
8083
8274
8077
8232
8093
8155
8137
8079
8173
8031
8203
8010
8184
8023
8151
8066
8107
8114
8081
8154
8075
8156
8102
8133
8166
8103
8234
8066
8281
8048
8286
8054
8249
8095
8215
8165
8170
8226
8143
8272
8145
8255
8157
8207
8195
8150
8254
8117
8269
8109
8231
8134
8180
8165
8096
8202
8035
8220
8005
8241
8021
8205
8052
8154
8099
8103
8140
8073
8150
8085
8137
8125
8098
8178
8054
8231
8029
8243
8033
8226
8068
8180
8123
8123
8194
8086
8241
8089
8267
8111
8247
8153
8201
8208
8141
8231
8131
8220
8135
8192
8191
8129
8227
8059
8260
8016
8256
8011
8229
8048
8175
8098
8112
8146
8070
8163
8068
8160
8096
8132
8130
8079
8173
8047
8204
8058
8207
8085
8178
8149
8129
8210
8074
8250
8040
8261
8040
8251
8098
8224
8172
8184
8217
8149
8238
8149
8208
8183
8176
8245
8117
8280
8071
8281
8052
8247
8063
8183
8097
8123
8153
8067
8189
8047
8194
8050
8158
8090
8125
8132
8085
8171
8070
8181
8089
8157
8137
8108
8193
8059
8239
8022
8267
8022
8242
8068
8215
8140
8188
8203
8161
8244
8140
8234
8154
8194
8205
8141
8253
8116
8276
8080
8245
8085
8190
8122
8125
8165
8055
8208
8028
8223
8014
8202
8051
8150
8094
8108
8138
8088
8161
8097
8152
8124
8117
8194
8079
8240
8041
8270
8037
8249
8051
8214
8105
8169
8170
8132
8240
8112
8261
8127
8247
8163
8189
8202
8135
8243
8117
8259
8128
8212
8162
8147
8193
8059
8220
8015
8244
8004
8223
8028
8188
8070
8123
8116
8084
8143
8073
8148
8092
8118
8133
8084
8197
8051
8240
8045
8233
8060
8206
8110
8148
8167
8084
8221
8058
8256
8078
8269
8135
8264
8193
8201
8226
8148
8243
8148
8221
8193
8184
8211
8096
8248
8037
8258
8006
8235
8019
8202
8074
8155
8134
8089
8162
8059
8168
8061
8151
8092
8120
8146
8082
8179
8057
8201
8068
8183
8108
8140
8176
8074
8221
8029
8258
8035
8262
8061
8241
8122
8202
8181
8152
8212
8133
8214
8151
8193
8201
8141
8260
8092
8267
8053
8259
8051
8198
8077
8147
8138
8086
8192
8048
8212
8045
8207
8066
8162
8116
8123
8153
8088
8174
8085
8170
8101
8113
8162
8074
8221
8037
8265
8017
8265
8045
8237
8100
8195
8174
8165
8225
8132
8246
8135
8233
8166
8186
8219
8137
8265
8109
8266
8100
8226
8129
8163
8160
8078
8194
8029
8219
8008
8226
8016
8187
8065
8135
8114
8101
8148
8079
8154
8098
8136
8139
8089
8198
8053
8242
8028
8262
8041
8221
8080
8179
8152
8134
8207
8104
8261
8110
8278
8148
8243
8182
8182
8219
8149
8253
8138
8229
8160
8188
8194
8112
8227
8042
8259
8014
8253
8022
8226
8063
8158
8094
8097
8143
8076
8158
8076
8150
8100
8107
8141
8073
8201
8052
8222
8060
8211
8097
8173
8152
8115
8216
8072
8276
8059
8280
8088
8266
8133
8219
8193
8161
8218
8142
8220
8147
8194
8204
8138
8221
8067
8256
8031
8246
8027
8214
8047
8167
8100
8102
8156
8058
8184
8035
8168
8062
8143
8106
8109
8148
8072
8175
8062
8185
8089
8145
8147
8096
8210
8041
8242
8025
8273
8041
8246
8089
8217
8159
8183
8212
8146
8242
8141
8218
8182
8189
8227
8143
8276
8092
8269
8066
8231
8084
8184
8130
8110
8175
8041
8211
8028
8215
8030
8190
8077
8145
8118
8102
8157
8081
8161
8090
8140
8129
8099
8201
8058
8255
8036
8271
8028
8239
8067
8208
8134
8167
8199
8126
8246
8116
8258
8135
8213
8166
8157
8222
8126
8265
8118
8234
8116
8182
8160
8129
8191
8049
8230
8020
8252
8016
8218
8038
8172
8091
8123
8131
8088
8154
8088
8159
8119
8118
8168
8077
8214
8050
8248
8043
8236
8067
8188
8125
8135
8186
8092
8239
8085
8275
8107
8267
8137
8204
8177
8148
8209
8126
8217
8135
8205
8175
8149
8217
8076
8248
8023
8256
8013
8236
8039
8204
8099
8153
8158
8086
8171
8066
8170
8074
8141
8116
8106
8167
8072
8190
8047
8203
8069
8167
8121
8120
8185
8070
8240
8054
8284
8057
8278
8094
8245
8159
8199
8207
8159
8235
8147
8221
8178
8190
8219
8112
8256
8079
8272
8041
8238
8044
8191
8091
8139
8145
8068
8179
8026
8187
8032
8174
8070
8135
8122
8091
8155
8071
8176
8079
8163
8119
8110
8180
8067
8229
8026
8266
8023
8259
8056
8226
8121
8193
8189
8169
8242
8146
8249
8144
8212
8193
8160
8243
8119
8265
8093
8245
8087
8203
8119
8139
8164
8064
8206
8027
8229
8016
8214
8044
8191
8098
8133
8139
8096
8164
8085
8154
8111
8112
8155
8068
8213
8041
8260
8028
8248
8040
8217
8094
8183
8177
8152
8237
8112
8272
8120
8258
8143
8202
8189
8157
8245
8136
8267
8144
8224
8153
8145
8176
8068
8219
8023
8252
8007
8249
8031
8203
8073
8156
8119
8104
8152
8078
8164
8091
8143
8127
8107
8181
8059
8222
8049
8226
8059
8206
8100
8152
8161
8096
8230
8064
8268
8069
8277
8108
8255
8152
8202
8202
8154
8231
8138
8217
8171
8186
8205
8116
8244
8058
8260
8016
8234
8014
8202
8058
8156
8124
8097
8166
8056
8183
8055
8163
8081
8128
8126
8098
8171
8066
8187
8066
8181
8101
8141
8168
8074
8203
8029
8254
8036
8275
8068
8269
8120
8228
8195
8187
8226
8145
8248
8151
8205
8190
8171
8252
8124
8280
8080
8273
8065
8215
8080
8160
8136
8088
8183
8043
8210
8022
8189
8036
8160
8081
8115
8126
8088
8158
8082
8158
8091
8122
8146
8078
8199
8040
8261
8024
8263
8038
8242
8082
8207
8168
8173
8214
8132
8253
8130
8245
8149
8198
8192
8145
8253
8117
8263
8096
8217
8104
8163
8152
8086
8192
8040
8231
8012
8246
8018
8204
8058
8156
8101
8109
8145
8084
8155
8089
8141
8123
8096
8185
8064
8236
8036
8251
8045
8228
8072
8191
8151
8150
8209
8108
8272
8102
8278
8119
8252
8153
8194
8198
8141
8236
8129
8230
8160
8194
8185
8124
8220
8052
8255
8016
8260
8018
8225
8045
8173
8088
8107
8144
8070
8160
8070
8164
8104
8135
8137
8082
8174
8060
8212
8061
8214
8088
8175
8142
8118
8201
8070
8254
8055
8288
8075
8275
8122
8229
8175
8188
8210
8148
8235
8146
8209
8194
8158
8217
8095
8264
8041
8257
8025
8214
8043
8168
8090
8120
8157
8064
8186
8045
8197
8061
8166
8094
8123
8136
8092
8175
8077
8195
8098
8162
8142
8122
8205
8060
8245
8032
8277
8046
8268
8087
8239
8157
8206
8205
8147
8229
8134
8230
8150
8199
8197
8142
8245
8088
8256
8066
8230
8076
8184
8112
8115
8170
8057
8217
8026
8226
8031
8203
8057
8147
8097
8106
8137
8084
8156
8085
8147
8119
8117
8188
8070
8230
8036
8266
8029
8253
8054
8219
8121
8177
8190
8145
8244
8124
8260
8126
8242
8152
8185
8199
8133
8250
8123
8256
8129
8205
8138
8110
8169
8049
8214
8005
8243
8006
8225
8028
8185
8070
8124
8116
8083
8147
8070
8141
8081
8122
8128
8084
8201
8053
8241
8050
8236
8059
8211
8127
8168
8199
8124
8253
8096
8296
8121
8296
8145
8260
8192
8197
8224
8152
8237
8139
8212
8169
8158
8195
8078
8228
8026
8253
8005
8236
8031
8202
8069
8152
8129
8085
8166
8059
8172
8062
8154
8094
8118
8149
8072
8174
8054
8196
8072
8183
8104
8129
8163
8074
8230
8052
8277
8047
8290
8087
8266
8154
8217
8194
8169
8221
8142
8232
8158
8204
8213
8146
8242
8087
8267
8055
8252
8045
8199
8080
8141
8140
8082
8187
8050
8213
8041
8191
8059
8159
8107
8119
8149
8089
8171
8078
8174
8116
8135
8175
8084
8219
8034
8252
8015
8264
8051
8241
8109
8210
8187
8171
8226
8132
8247
8134
8236
8162
8182
8219
8142
8260
8108
8270
8094
8216
8121
8147
8147
8072
8194
8033
8228
8008
8235
8029
8194
8067
8138
8117
8101
8151
8081
8157
8091
8128
8134
8088
8198
8054
8249
8033
8258
8040
8223
8085
8195
8154
8156
8226
8121
8275
8120
8272
8132
8225
8162
8169
8213
8140
8253
8133
8220
8130
8173
8170
8093
8217
8037
8256
8012
8256
8022
8225
8063
8168
8103
8104
8133
8067
8159
8060
8130
8092
8108
8143
8070
8198
8048
8224
8064
8218
8086
8160
8146
8116
8214
8078
8281
8082
8300
8109
8282
8142
8229
8198
8182
8240
8155
8240
8155
8192
8180
8123
8219
8068
8255
8029
8249
8019
8218
8049
8174
8117
8125
8163
8058
8185
8043
8173
8068
8148
8113
8107
8152
8076
8196
8070
8193
8097
8165
8148
8097
8202
8053
8266
8043
8286
8068
8276
8094
8226
8156
8179
8201
8144
8222
8142
8218
8164
8177
8213
8118
8244
8074
8249
8041
8213
8064
8173
8122
8115
8179
8054
8214
8030
8218
8033
8198
8072
8145
8120
8101
8153
8081
8152
8093
8141
8132
8102
8193
8053
8231
8019
8263
8030
8253
8070
8222
8149
8182
8216
8150
8244
8129
8260
8140
8225
8186
8164
8237
8128
8256
8104
8235
8106
8191
8146
8118
8192
8052
8226
8018
8249
8017
8220
8044
8175
8086
8115
8127
8082
8145
8081
8144
8109
8121
8153
8077
8213
8045
8254
8038
8229
8047
8190
8128
8150
8189
8110
8252
8093
8282
8104
8264
8132
8202
8181
8161
8217
8136
8241
8128
8196
8172
8148
8200
8064
8232
8023
8259
8015
8245
8044
8200
8088
8144
8142
8085
8173
8071
8169
8077
8142
8116
8108
8162
8068
8210
8068
8216
8078
8184
8129
8131
8182
8084
8244
8060
8298
8074
8297
8114
8248
8166
8206
8209
8159
8249
8160
8247
8192
8192
8212
8116
8241
8061
8263
8029
8220
8038
8187
8074
8131
8128
8054
8159
8026
8184
8031
8173
8072
8131
8108
8090
8153
8067
8169
8083
8164
8120
8128
8183
8074
8229
8040
8285
8045
8282
8077
8247
8125
8219
8203
8172
8235
8142
8251
8150
8225
8196
8177
8227
8113
8262
8078
8242
8074
8195
8099
8135
8152
8072
8214
8032
8231
8015
8234
8040
8186
8086
8130
8129
8094
8163
8082
8154
8113
8127
8169
8080
8218
8046
8251
8028
8262
8053
8225
8099
8199
8178
8151
8246
8122
8267
8119
8253
8140
8204
8192
8157
8236
8121
8241
8109
8205
8135
8148
8173
8068
8206
8025
8231
7999
8231
8011
8194
8054
8145
8108
8094
8138
8067
8152
8087
8140
8125
8103
8185
8067
8224
8048
8230
8055
8205
8088
8163
8169
8118
8235
8086
8279
8088
8288
8110
8251
8149
8196
8202
8155
8240
8143
8221
8165
8175
8194
8103
8218
8044
8247
8011
8247
8020
8211
8061
8165
8128
8103
8166
8065
8192
8061
8174
8092
8134
8131
8097
8178
8076
8206
8083
8202
8115
8167
8177
8122
8237
8067
8271
8040
8288
8071
8281
8122
8219
8176
8167
8198
8125
8221
8131
8197
8171
8133
8211
8083
8237
8039
8231
8040
8208
8079
8161
8124
8089
8173
8041
8208
8019
8206
8040
8182
8086
8131
8131
8097
8168
8087
8174
8108
8156
8163
8095
8214
8049
8257
8037
8286
8050
8257
8101
8231
8176
8188
8227
8160
8260
8127
8249
8156
8207
8210
8161
8251
8106
8252
8091
8218
8094
8157
8136
8087
8186
8038
8232
8012
8242
8030
8205
8054
8167
8108
8117
8143
8092
8165
8091
8140
8123
8107
8192
8070
8226
8038
8256
8044
8231
8081
8200
8142
8164
8217
8120
8276
8108
8283
8112
8246
8155
8202
8205
8152
8244
8129
8223
8134
8181
8161
8098
8181
8029
8219
8000
8246
8001
8213
8029
8173
8078
8112
8151
8085
8181
8071
8163
8098
8133
8130
8092
8172
8065
8215
8055
8209
8079
8171
8135
8128
8199
8070
8256
8068
8289
8079
8282
8122
8236
8171
8187
8204
8140
8236
8148
8215
8178
8157
8211
8085
8233
8027
8255
8025
8232
8048
8180
8092
8124
8150
8075
8187
8048
8198
8064
8171
8100
8134
8143
8084
8172
8071
8187
8091
8174
8143
8122
8186
8065
8243
8037
8279
8055
8289
8091
8250
8151
8204
8193
8142
8220
8125
8223
8145
8192
8190
8135
8225
8092
8269
8069
8238
8073
8192
8117
8142
8165
8064
8210
8019
8219
8016
8203
8047
8152
8097
8113
8139
8082
8150
8077
8143
8111
8116
8174
8069
8232
8042
8267
8038
8279
8061
8237
8130
8198
8199
8156
8245
8122
8265
8128
8243
8155
8194
8202
8134
8232
8103
8235
8103
8184
8127
8127
8167
8059
8211
8022
8250
8013
8241
8035
8198
8077
8150
8130
8103
8156
8085
8157
8100
8135
8143
8098
8201
8060
8243
8044
8233
8054
8212
8118
8166
8183
8133
8248
8101
8286
8101
8285
8123
8227
8174
8192
8209
8153
8236
8132
8202
8148
8150
8182
8077
8210
8027
8250
8009
8248
8025
8210
8071
8155
8110
8088
8161
8061
8183
8070
8172
8126
8142
8147
8076
8168
8047
8197
8057
8189
8102
8146
8169
8092
8231
8061
8281
8060
8292
8087
8273
8150
8220
8189
8175
8228
8145
8239
8152
8193
8189
8131
8220
8070
8243
8029
8231
8033
8205
8073
8156
8131
8092
8180
8049
8202
8035
8189
8061
8156
8100
8119
8150
8084
8176
8084
8175
8113
8149
8166
8086
8217
8045
8275
8038
8289
8056
8259
8113
8231
8180
8185
8228
8137
8252
8135
8234
8168
8191
8205
8122
8238
8078
8227
8064
8204
8083
8154
8141
8085
8191
8038
8221
8014
8237
8033
8198
8069
8162
8109
8108
8156
8085
8165
8105
8146
8140
8097
8197
8052
8245
8026
8257
8049
8252
8087
8214
8168
8167
8218
8112
8249
8100
8260
8122
8222
8164
8186
8220
8141
8240
8115
8220
8124
8170
8162
8092
8197
8035
8234
8010
8255
8012
8220
8043
8174
8094
8114
8140
8088
8161
8080
8165
8114
8126
8151
8085
8205
8060
8228
8055
8214
8084
8185
8152
8132
8220
8094
8281
8091
8293
8099
8272
8128
8215
8183
8164
8223
8143
8237
8141
8189
8168
8120
8196
8057
8225
8015
8250
8012
8223
8044
8172
8093
8124
8149
8068
8177
8054
8196
8075
8157
8105
8116
8163
8078
8180
8072
8205
8095
8168
8139
8104
8200
8071
8248
8049
8296
8066
8294
8107
8239
8161
8195
8204
8152
8223
8136
8222
8164
8184
8206
8114
8239
8055
8240
8039
8215
8054
8171
8115
8118
8159
8054
8201
8024
8209
8034
8188
8068
8148
8116
8111
8151
8085
8169
8098
8164
8145
8117
8192
8060
8234
8036
8278
8041
8278
8084
8242
8149
8197
8205
8157
8242
8127
8254
8139
8224
8188
8165
8217
8121
8245
8089
8220
8088
8175
8130
8121
8179
8059
8223
8021
8248
8019
8230
8044
8189
8090
8129
8134
8092
8157
8085
8155
8115
8129
8170
8082
8215
8048
8243
8032
8241
8067
8215
8129
8172
8197
8138
8257
8103
8287
8106
8262
8130
8214
8182
8171
8231
8133
8216
8114
8184
8148
8118
8174
8052
8220
8014
8251
8005
8234
8027
8199
8073
8149
8135
8094
8175
8077
8178
8080
8150
8117
8108
8163
8074
8208
8061
8217
8071
8192
8124
8146
8188
8094
8251
8076
8295
8082
8294
8103
8247
8146
8206
8202
8154
8236
8143
8214
8142
8163
8183
8092
8211
8030
8232
8012
8225
8025
8193
8063
8141
8132
8078
8178
8048
8206
8054
8187
8082
8153
8123
8108
8161
8083
8189
8083
8182
8115
8141
8175
8079
8230
8052
8277
8045
8286
8081
8280
8147
8234
8205
8189
8231
8138
8234
8135
8210
8178
8148
8210
8102
8242
8054
8227
8056
8201
8092
8144
8154
8077
8200
8034
8230
8023
8225
8041
8189
8080
8137
8135
8100
8155
8093
8164
8113
8136
8169
8096
8223
8050
8264
8035
8277
8054
8250
8103
8213
8187
8160
8228
8108
8258
8109
8252
8133
8204
8186
8150
8213
8108
8239
8097
8191
8109
8139
8154
8070
8197
8025
8224
8006
8238
8013
8203
8056
8163
8114
8111
8144
8082
8164
8096
8149
8123
8114
8180
8077
8235
8051
8232
8055
8222
8103
8184
8177
8147
8239
8109
8292
8096
8290
8105
8257
8144
8208
8197
8159
8227
8134
8207
8130
8160
8168
8094
8198
8032
8235
8009
8244
8016
8214
8042
8164
8096
8103
8157
8071
8187
8062
8171
8081
8140
8129
8105
8175
8079
8205
8068
8199
8100
8167
8163
8124
8224
8080
8289
8076
8311
8084
8290
8122
8229
8179
8184
8218
8148
8241
8146
8205
8169
8143
8201
8080
8234
8037
8233
8034
8216
8064
8166
8118
8095
8167
8045
8193
8026
8211
8050
8186
8088
8140
8135
8101
8166
8086
8180
8103
8161
8164
8105
8208
8071
8263
8042
8293
8060
8287
8104
8234
8159
8185
8207
8132
8234
8120
8238
8145
8199
8189
8129
8211
8083
8227
8062
8205
8074
8162
8134
8111
8189
8041
8223
8013
8240
8014
8210
8055
8178
8101
8119
8143
8090
8161
8095
8151
8132
8124
8185
8070
8226
8043
8263
8046
8257
8086
8225
8155
8182
8218
8134
8263
8100
8270
8110
8248
8148
8201
8203
8147
8227
8114
8215
8110
8166
8146
8100
8188
8043
8226
8008
8248
8006
8228
8026
8167
8075
8116
8145
8086
8164
8081
8166
8086
8137
8132
8089
8191
8060
8215
8055
8216
8073
8186
8150
8142
8213
8101
8286
8082
8294
8077
8279
8113
8229
8171
8183
8219
8155
8236
8140
8200
8167
8132
8189
8068
8218
8025
8249
8021
8232
8037
8186
8087
8140
8158
8077
8195
8057
8199
8061
8174
8097
8137
8147
8099
8186
8086
8201
8091
8177
8140
8127
8203
8088
8252
8063
8300
8073
8309
8106
8256
8154
8201
8198
8160
8219
8131
8230
8145
8185
8178
8122
8215
8069
8233
8038
8210
8052
8177
8097
8121
8160
8064
8204
8028
8221
8027
8212
8057
8174
8102
8116
8136
8090
8166
8098
8174
8143
8151
8190
8069
8209
8015
8253
8026
8271
8068
8248
8145
8201
8197
8152
8232
8109
8255
8118
8242
8155
8187
8192
8122
8225
8079
8210
8073
8173
8105
8123
8168
8064
8213
8020
8245
8000
8223
8017
8192
8076
8151
8123
8097
8152
8083
8162
8108
8141
8146
8099
8200
8057
8245
8044
8245
8071
8221
8135
8191
8204
8151
8259
8107
8291
8098
8275
8121
8234
8176
8191
8210
8138
8211
8118
8193
8130
8122
8171
8071
8214
8027
8252
8003
8240
8025
8206
8065
8153
8133
8100
8170
8066
8189
8076
8165
8116
8129
8148
8087
8188
8057
8203
8067
8185
8107
8153
8183
8099
8246
8082
8301
8071
8298
8094
8273
8132
8215
8194
8172
8228
8144
8209
8143
8177
8177
8109
8211
8061
8233
8024
8233
8029
8204
8067
8145
8125
8081
8184
8053
8209
8047
8209
8067
8164
8110
8114
8144
8100
8180
8099
8192
8117
8142
8168
8095
8229
8063
8283
8053
8298
8079
8285
8124
8236
8184
8183
8223
8141
8242
8133
8233
8151
8162
8186
8095
8223
8065
8215
8052
8181
8077
8150
8141
8073
8194
8039
8225
8013
8236
8028
8203
8074
8157
8119
8102
8156
8093
8165
8110
8153
8155
8110
8211
8063
8253
8041
8268
8047
8258
8105
8210
8179
8174
8226
8112
8244
8087
8259
8117
8224
8160
8171
8202
8121
8224
8095
8190
8104
8139
8143
8073
8192
8029
8227
7998
8242
8005
8215
8043
8167
8100
8114
8150
8079
8160
8084
8149
8114
8123
8158
8089
8205
8049
8226
8052
8220
8096
8191
8173
8163
8255
8133
8304
8101
8304
8097
8277
8134
8229
8194
8181
8214
8135
8209
8129
8171
8155
8115
8191
8053
8232
8014
8255
8018
8221
8044
8181
8106
8127
8154
8073
8189
8061
8180
8071
8154
8119
8120
8160
8091
8206
8076
8197
8092
8161
8152
8129
8217
8078
8275
8060
8307
8070
8286
8106
8238
8158
8188
8203
8143
8238
8122
8203
8139
8150
8175
8090
8215
8048
8236
8041
8210
8049
8166
8094
8110
8160
8052
8209
8029
8216
8039
8199
8065
8147
8117
8109
8160
8089
8172
8109
8163
8131
8108
8191
8064
8260
8048
8297
8061
8292
8107
8260
8165
8208
8209
8159
8241
8126
8251
8138
8214
8158
8153
8199
8100
8220
8061
8197
8070
8163
8123
8116
8178
8049
8212
8012
8235
8009
8220
8038
8191
8086
8126
8124
8088
8158
8085
8153
8112
8130
8165
8081
8212
8044
8261
8049
8251
8082
8240
8159
8204
8227
8148
8256
8099
8279
8100
8262
8131
8214
8181
8156
8206
8108
8205
8097
8167
8114
8105
8175
8063
8225
8018
8238
7986
8219
8010
8183
8068
8143
8135
8095
8173
8083
8178
8088
8158
8125
8117
8173
8085
8227
8063
8217
8075
8204
8131
8160
8204
8123
8266
8089
8313
8083
8301
8103
8259
8162
8208
8209
8160
8234
8141
8203
8140
8143
8162
8074
8202
8030
8235
8013
8230
8030
8199
8079
8145
8132
8081
8174
8053
8198
8046
8183
8079
8148
8124
8110
8166
8091
8201
8093
8178
8120
8140
8189
8101
8247
8065
8304
8069
8319
8088
8282
8143
8226
8186
8173
8222
8134
8242
8139
8198
8155
8142
8194
8079
8220
8034
8209
8050
8191
8087
8145
8147
8073
8193
8028
8220
8020
8228
8036
8185
8083
8130
8123
8096
8157
8093
8158
8105
8132
8156
8084
8212
8054
8272
8038
8285
8070
8265
8136
8225
8192
8173
8242
8136
8269
8119
8262
8153
8219
8181
8144
8208
8093
8205
8080
8178
8099
8136
8149
8079
8205
8026
8252
8009
8249
8023
8211
8063
8169
8112
8107
8137
8084
8160
8085
8139
8119
8105
8165
8072
8216
8049
8253
8066
8225
8105
8203
8187
8157
8247
8113
8284
8081
8281
8099
8254
8141
8210
8189
8147
8193
8119
8188
8115
8157
8148
8086
8202
8045
8245
8018
8253
8017
8221
8054
8169
8102
8123
8160
8078
8191
8070
8180
8092
8145
8137
8115
8181
8086
8204
8070
8198
8097
8176
8155
8129
8234
8090
8295
8077
8311
8077
8287
8114
8225
8177
8182
8217
8148
8231
8134
8195
8149
8137
8187
8067
8210
8034
8222
8023
8210
8045
8173
8116
8109
8167
8062
8208
8048
8226
8056
8194
8089
8139
8136
8104
8183
8092
8190
8101
8157
8140
8105
8204
8067
8273
8061
8313
8079
8302
8105
8254
8165
8191
8215
8164
8244
8139
8253
8143
8197
8182
8133
8200
8075
8212
8046
8194
8063
8164
8123
8099
8173
8042
8215
8013
8236
8017
8207
8046
8169
8091
8122
8138
8093
8176
8099
8155
8132
8129
8182
8073
8227
8049
8271
8053
8283
8093
8245
8160
8189
8211
8140
8252
8107
8277
8111
8255
8151
8200
8192
8141
8207
8109
8198
8095
8159
8114
8106
8174
8053
8221
8017
8253
8003
8232
8030
8195
8085
8147
8132
8099
8170
8074
8165
8097
8149
8144
8105
8189
8062
8234
8051
8223
8088
8200
8149
8169
8210
8133
8269
8085
8295
8085
8283
8114
8234
8167
8192
8203
8141
8222
8120
8185
8131
8124
8174
8060
8214
8032
8240
8007
8225
8023
8188
8067
8131
8132
8077
8173
8054
8202
8059
8174
8093
8140
8142
8102
8188
8080
8205
8084
8188
8136
8152
8194
8096
8255
8077
8311
8063
8305
8089
8269
8126
8211
8201
8173
8227
8143
8224
8129
8181
8170
8121
8202
8050
8192
8018
8205
8039
8188
8077
8133
8139
8075
8184
8036
8218
8034
8206
8060
8165
8102
8127
8152
8105
8182
8112
8176
8122
8148
8173
8094
8241
8060
8289
8059
8307
8083
8274
8142
8229
8190
8172
8235
8133
8261
8135
8250
8145
8184
8186
8123
8200
8067
8198
8064
8173
8085
8129
8148
8067
8194
8019
8225
8008
8238
8035
8214
8072
8169
8122
8111
8155
8093
8168
8100
8154
8149
8114
8201
8072
8240
8052
8261
8066
8250
8126
8208
8185
8159
8229
8099
8264
8092
8274
8111
8244
8152
8189
8198
8132
8208
8101
8183
8113
8137
8153
8087
8205
8031
8246
8010
8253
8013
8220
8055
8173
8108
8120
8162
8086
8186
8074
8168
8109
8139
8149
8104
8202
8065
8223
8069
8214
8102
8179
8184
8145
8246
8101
8301
8077
8302
8090
8278
8125
8223
8184
8181
8206
8125
8207
8115
8155
8138
8107
8187
8054
8220
8016
8241
8012
8218
8046
8167
8111
8107
8162
8061
8200
8049
8205
8063
8169
8099
8131
8145
8095
8179
8077
8182
8092
8159
8159
8114
8224
8080
8287
8071
8316
8077
8300
8107
8239
8155
8192
8205
8144
8233
8128
8222
8147
8161
8178
8101
8201
8055
8218
8045
8203
8066
8170
8123
8108
8174
8054
8214
8031
8240
8036
8214
8074
8179
8115
8119
8164
8105
8175
8110
8172
8137
8114
8190
8073
8258
8050
8290
8063
8294
8097
8252
8158
8192
8202
8138
8241
8117
8262
8125
8222
8151
8160
8182
8103
8188
8070
8191
8075
8159
8125
8103
8177
8050
8227
8024
8256
8015
8227
8048
8196
8090
8148
8129
8096
8154
8081
8163
8110
8139
8147
8098
8203
8058
8245
8059
8241
8095
8233
8165
8193
8217
8135
8262
8087
8282
8090
8266
8127
8230
8175
8181
8205
8129
8220
8107
8181
8121
8115
8184
8069
8218
8019
8252
8012
8231
8038
8193
8075
8150
8141
8093
8181
8070
8192
8086
8170
8111
8128
8157
8091
8191
8073
8212
8089
8204
8139
8168
8208
8109
8269
8082
8309
8073
8301
8086
8252
8133
8199
8191
8154
8217
8130
8204
8126
8142
8146
8078
8188
8036
8227
8018
8218
8033
8200
8083
8144
8147
8082
8191
8049
8210
8036
8187
8057
8156
8110
8116
8149
8099
8184
8090
8174
8118
8143
8190
8096
8257
8077
8306
8068
8315
8092
8290
8136
8201
8172
8158
8224
8135
8245
8124
8205
8146
8144
8177
8083
8204
8055
8214
8056
8188
8087
8142
8147
8073
8199
8029
8232
8020
8246
8040
8201
8086
8163
8133
8119
8169
8095
8171
8118
8144
8161
8094
8212
8069
8260
8054
8290
8082
8271
8137
8222
8190
8164
8234
8119
8277
8112
8273
8134
8221
8163
8163
8196
8108
8199
8082
8170
8095
8131
8146
8066
8188
8016
8232
7996
8240
8012
8217
8061
8164
8106
8108
8157
8074
8163
8081
8159
8122
8128
8166
8087
8223
8062
8226
8068
8225
8133
8201
8193
8162
8254
8106
8296
8082
8299
8099
8265
8134
8213
8183
8151
8205
8122
8177
8108
8141
8132
8087
8189
8035
8219
8003
8238
8013
8205
8050
8168
8117
8123
8177
8075
8204
8057
8191
8092
8184
8139
8139
8193
8099
8213
8088
8200
8119
8179
8175
8138
8247
8088
8303
8078
8308
8077
8287
8105
8232
8173
8190
8220
8138
8217
8113
8177
8129
8123
8156
8071
8199
8030
8212
8031
8200
8059
8157
8119
8094
8169
8050
8208
8031
8238
8050
8204
8074
8145
8127
8116
8171
8100
8185
8110
8162
8161
8115
8213
8062
8269
8052
8302
8068
8296
8104
8241
8160
8177
8212
8145
8247
8122
8251
8121
8195
8147
8131
8171
8084
8195
8064
8189
8077
8160
8130
8095
8179
8035
8215
8005
8244
8018
8225
8057
8186
8104
8132
8146
8102
8177
8106
8171
8134
8133
8176
8085
8240
8062
8255
8067
8278
8112
8245
8180
8190
8222
8128
8261
8095
8281
8099
8264
8139
8210
8181
8151
8196
8102
8187
8102
8152
8129
8098
8187
8043
8214
8005
8244
7993
8216
8026
8175
8071
8129
8140
8084
8174
8070
8181
8093
