EMG
8040
7869
8026
7962
7979
8072
7914
8162
7876
8218
7899
8234
7986
8182
8114
8109
8233
8072
8357
8118
8434
8235
8443
8352
8369
8415
8240
8411
8142
8359
8131
8258
8174
8129
8206
7967
8195
7830
8140
7764
8035
7766
7943
7870
7872
7952
7820
8011
7813
8003
7861
7953
7967
7911
8079
7863
8141
7868
8160
7923
8118
8041
8076
8191
8022
8286
7990
8339
8067
8379
8212
8369
8376
8374
8484
8294
8457
8245
8390
8260
8267
8301
8131
8340
7999
8298
7890
8172
7853
8024
7880
7879
7933
7788
8004
7775
8023
7806
7981
7885
7913
7977
7860
8067
7854
8101
7893
8078
7991
8021
8127
7976
8251
7954
8325
7989
8336
8081
8312
8252
8312
8410
8294
8494
8288
8474
8307
8369
8322
8226
8360
8101
8376
8028
8308
7980
8143
7961
7959
7973
7793
7988
7709
8008
7722
7986
7802
7934
7894
7863
7986
7819
8025
7843
8037
7931
8002
8067
7960
8194
7920
8280
7938
8302
8005
8267
8139
8211
8281
8195
8415
8236
8493
8307
8485
8382
8390
8412
8260
8417
8139
8383
8112
8289
8129
8138
8119
7939
8133
7820
8118
7754
8038
7728
7937
7812
7860
7917
7812
7992
7812
8013
7870
7987
7976
7936
8092
7883
8168
7877
8221
7943
8206
8051
8170
8197
8113
8325
8095
8424
8174
8479
8301
8466
8436
8412
8509
8310
8478
8226
8401
8227
8277
8255
8123
8258
7926
8190
7785
8088
7734
7970
7768
7870
7871
7789
7953
7770
7986
7792
7969
7865
7906
7957
7847
8060
7847
8137
7897
8158
8001
8134
8147
8077
8269
8021
8361
8047
8410
8144
8420
8310
8387
8439
8367
8526
8337
8505
8314
8403
8326
8251
8358
8101
8350
7974
8255
7854
8070
7816
7898
7842
7759
7924
7727
7987
7718
7967
7777
7928
7885
7872
7986
7843
8067
7866
8085
7932
8055
8046
7998
8191
7970
8310
7966
8343
8034
8345
8159
8322
8339
8339
8495
8344
8577
8376
8541
8399
8408
8414
8258
8432
8134
8397
8062
8282
8006
8075
7969
7864
7951
7687
7947
7624
7946
7676
7923
7761
7834
7853
7784
7955
7790
8014
7858
8009
7981
7993
8126
7940
8226
7923
8297
7976
8316
8091
8261
8205
8202
8360
8226
8517
8312
8576
8409
8546
8478
8435
8499
8301
8476
8203
8421
8188
8290
8181
8084
8145
7856
8073
7687
7993
7622
7922
7692
7866
7815
7789
7913
7755
7961
7777
7962
7861
7925
7986
7890
8105
7865
8180
7896
8223
8007
8197
8141
8153
8274
8113
8403
8154
8522
8303
8559
8417
8515
8512
8431
8552
8338
8505
8268
8390
8274
8249
8303
8086
8274
7887
8163
7749
8018
7709
7869
7745
7753
7856
7705
7927
7704
7946
7761
7918
7869
7867
7991
7856
8098
7862
8118
7906
8102
8034
8080
8199
8033
8325
8031
8413
8102
8459
8257
8458
8422
8443
8571
8438
8622
8411
8553
8383
8407
8381
8238
8394
8089
8368
7977
8209
7873
8031
7866
7850
7880
7698
7909
7641
7935
7660
7918
7750
7860
7868
7819
7971
7806
8038
7853
8045
7959
8014
8098
7963
8230
7966
8350
8008
8375
8087
8341
8239
8325
8425
8358
8566
8395
8624
8427
8553
8447
8405
8457
8260
8449
8139
8383
8074
8227
8011
7987
8006
7805
7980
7644
7939
7603
7937
7698
7889
7809
7821
7901
7781
7971
7792
7993
7878
7968
7990
7922
8119
7893
8213
7918
8291
8010
8283
8131
8221
8265
8184
8433
8245
8569
8357
8622
8456
8542
8525
8433
8540
8313
8495
8235
8403
8228
8243
8213
8002
8145
7799
8055
7646
7968
7638
7876
7709
7798
7833
7735
7905
7713
7944
7781
7934
7884
7908
8012
7872
8115
7868
8191
7944
8219
8081
8190
8215
8130
8346
8089
8438
8158
8521
8323
8552
8471
8527
8591
8463
8595
8368
8509
8320
8374
8317
8220
8339
8040
8282
7855
8126
7749
7964
7724
7796
7779
7703
7882
7678
7937
7681
7920
7767
7886
7894
7852
8018
7842
8096
7876
8101
7963
8086
8109
8044
8254
8014
8363
8026
8403
8112
8431
8296
8457
8505
8473
8660
8465
8643
8420
8521
8403
8379
8428
8230
8427
8089
8360
7981
8175
7893
7948
7854
7740
7872
7633
7916
7621
7931
7691
7896
7791
7845
7914
7819
8005
7818
8027
7887
8026
8020
7987
8151
7946
8276
7964
8353
8028
8348
8136
8301
8307
8313
8507
8368
8618
8429
8647
8483
8558
8498
8396
8497
8261
8463
8179
8376
8130
8185
8065
7917
8006
7714
7974
7595
7933
7608
7899
7715
7845
7827
7766
7909
7755
7963
7802
7978
7913
7948
8047
7919
8169
7903
8255
7951
8272
8062
8248
8202
8190
8350
8183
8492
8275
8601
8388
8627
8505
8543
8561
8407
8538
8291
8460
8242
8346
8238
8168
8217
7931
8155
7770
8064
7666
7942
7658
7803
7755
7767
7884
7710
7917
7726
7955
7810
7926
7930
7889
8052
7875
8136
7889
8176
7975
8163
8125
8125
8275
8097
8402
8102
8487
8212
8539
8383
8536
8534
8509
8620
8438
8598
8373
8492
8355
8348
8374
8186
8373
8008
8264
7848
8073
7756
7895
7766
7749
7841
7673
7922
7667
7944
7708
7913
7809
7867
7926
7838
8033
7847
8094
7909
8072
8021
8040
8168
8009
8312
8006
8392
8055
8408
8174
8422
8380
8440
8544
8435
8648
8447
8636
8446
8507
8442
8346
8449
8197
8413
8076
8311
7981
8092
7912
7860
7900
7684
7918
7615
7951
7641
7935
7721
7871
7829
7813
7945
7806
8019
7860
8047
7957
8014
8075
7966
8212
7952
8307
7984
8347
8082
8309
8201
8267
8382
8286
8555
8351
8636
8422
8611
8490
8499
8503
8355
8488
8237
8433
8174
8303
8142
8101
8097
7857
8038
7674
7984
7608
7941
7677
7904
7783
7808
7868
7742
7939
7750
7967
7829
7952
7951
7923
8076
7889
8174
7905
8242
8000
8242
8137
8199
8270
8146
8411
8174
8538
8301
8610
8428
8603
8547
8522
8588
8397
8550
8314
8448
8280
8301
8285
8120
8252
7892
8147
7740
8012
7668
7884
7709
7766
7816
7718
7914
7693
7941
7729
7931
7826
7894
7964
7871
8075
7870
8132
7922
8142
8029
8124
8187
8081
8332
8051
8417
8099
8483
8251
8533
8448
8518
8587
8475
8648
8430
8586
8397
8470
8395
8305
8389
8117
8344
7965
8205
7845
8021
7800
7835
7822
7703
7899
7668
7981
7705
7983
7754
7897
7848
7843
7959
7834
8050
7869
8074
7946
8041
8077
8018
8235
7988
8344
8003
8376
8066
8376
8225
8386
8436
8397
8579
8421
8655
8457
8638
8493
8498
8474
8308
8465
8176
8408
8084
8243
7997
8011
7945
7781
7940
7650
7940
7589
7933
7668
7918
7775
7858
7890
7803
7984
7820
8033
7890
8019
7996
7979
8132
7942
8248
7952
8328
8024
8319
8146
8280
8281
8247
8454
8279
8603
8351
8648
8437
8587
8501
8456
8509
8320
8479
8229
8405
8193
8260
8175
8011
8116
7809
8057
7648
7975
7615
7905
7703
7845
7834
7783
7924
7737
7967
7777
7981
7884
7960
8013
7917
8111
7899
8202
7944
8227
8058
8212
8207
8166
8345
8129
8457
8177
8556
8313
8575
8454
8550
8556
8461
8569
8350
8509
8306
8397
8297
8242
8301
8043
8236
7841
8112
7724
7966
7702
7846
7779
7748
7895
7706
7967
7705
7968
7774
7944
7896
7908
8020
7886
8110
7906
8150
7986
8134
8126
8102
8267
8060
8387
8057
8450
8129
8471
8295
8503
8490
8487
8629
8450
8639
8401
8534
8364
8387
8378
8231
8383
8085
8329
7939
8141
7843
7947
7823
7773
7885
7681
7970
7694
8018
7731
7971
7798
7898
7908
7841
8006
7845
8066
7909
8072
8017
8032
8153
7990
8289
7987
8366
8037
8380
8137
8345
8301
8348
8503
8377
8620
8412
8651
8446
8558
8449
8396
8447
8259
8441
8147
8358
8095
8180
8018
7939
7985
7734
7968
7621
7966
7615
7951
7719
7899
7832
7835
7932
7792
7999
7823
8026
7916
7995
8033
7951
8164
7936
8269
7979
8312
8070
8283
8202
8222
8350
8214
8501
8284
8619
8361
8636
8461
8555
8510
8406
8511
8293
8457
8223
8358
8203
8179
8184
7940
8119
7750
8030
7631
7942
7652
7865
7760
7804
7904
7788
7983
7756
7981
7806
7985
7943
7968
8076
7928
8156
7930
8224
8022
8251
8173
8218
8299
8138
8390
8084
8462
8171
8559
8357
8557
8489
8503
8582
8427
8570
8340
8480
8318
8356
8331
8180
8320
7998
8225
7826
8078
7743
7926
7751
7794
7830
7708
7943
7690
7990
7734
7982
7835
7946
7951
7905
8058
7890
8118
7929
8128
8031
8099
8175
8064
8325
8040
8400
8043
8411
8150
8433
8344
8450
8507
8421
8603
8400
8607
8386
8506
8390
8350
8398
8202
8383
8066
8293
7955
8107
7892
7890
7888
7719
7929
7636
7975
7652
7977
7738
7937
7848
7879
7955
7851
8048
7876
8079
7952
8049
8065
8009
8211
7982
8326
8005
8375
8077
8358
8195
8304
8374
8311
8544
8347
8641
8408
8630
8443
8513
8455
8355
8455
8237
8424
8160
8320
8120
8122
8070
7883
8027
7699
7994
7629
7975
7669
7944
7786
7886
7903
7824
7982
7814
8034
7870
8037
7972
7997
8091
7957
8203
7945
8273
8009
8279
8127
8246
8259
8179
8396
8179
8533
8271
8600
8374
8589
8476
8500
8514
8352
8491
8265
8422
8230
8315
8250
8153
8236
7933
8160
7752
8027
7663
7920
7703
7830
7842
7785
7956
7752
7997
7768
8003
7851
7981
7977
7942
8097
7924
8162
7949
8201
8052
8180
8186
8131
8333
8087
8430
8113
8497
8222
8543
8389
8517
8532
8465
8588
8376
8542
8319
8436
8314
8304
8344
8127
8319
7964
8206
7834
8046
7776
7888
7823
7766
7915
7708
7997
7708
8007
7754
7964
7848
7914
7981
7889
8070
7900
8117
7964
8121
8085
8066
8236
8049
8384
8071
8443
8093
8420
8223
8423
8418
8422
8566
8417
8641
8415
8603
8398
8476
8415
8329
8429
8170
8373
8044
8230
7951
8023
7918
7824
7928
7680
7964
7631
8003
7701
7998
7808
7926
7899
7860
7999
7849
8066
7896
8072
7988
8031
8122
7980
8230
7971
8331
8027
8354
8122
8300
8245
8264
8422
8282
8573
8322
8634
8389
8595
8440
8453
8461
8331
8463
8215
8401
8164
8257
8134
8033
8088
7827
8040
7680
8007
7638
7971
7717
7917
7850
7860
7942
7800
8005
7802
8036
7887
8005
7994
7973
8116
7944
8212
7957
8259
8052
8251
8180
8201
8316
8153
8452
8177
8558
8293
8590
8415
8554
8499
8450
8530
8328
8480
8247
8388
8237
8243
8252
8064
8212
7860
8114
7737
8019
7714
7905
7789
7821
7921
7765
8001
7759
8034
7800
8013
7898
7977
8023
7931
8117
7926
8178
7979
8174
8106
8147
8247
8103
8375
8067
8443
8118
8496
8263
8520
8430
8484
8559
8442
8603
8355
8527
8315
8395
8328
8242
8343
8092
8310
7939
8171
7840
7993
7820
7827
7877
7718
7956
7685
8023
7726
8006
7792
7951
7896
7900
8018
7889
8102
7922
8108
7999
8070
8133
8039
8268
8017
8373
8032
8395
8119
8398
8291
8421
8516
8421
8622
8396
8635
8385
8559
8388
8411
8397
8253
8406
8148
8360
8074
8207
7996
7977
7970
7773
7962
7654
7991
7638
8003
7718
7951
7826
7900
7941
7845
8023
7852
8073
7926
8063
8030
8008
8156
7972
8275
7992
8337
8063
8313
8170
8256
8307
8239
8479
8269
8601
8344
8658
8422
8563
8452
8415
8464
8284
8441
8208
8368
8179
8205
8149
7975
8098
7778
8042
7652
7990
7669
7936
7771
7877
7892
7804
7973
7782
8026
7818
8025
7913
7998
8036
7960
8156
7951
8228
8011
8272
8154
8251
8269
8166
8381
8150
8502
8180
8568
8316
8572
8451
8516
8525
8412
8522
8308
8476
8256
8360
8267
8203
8269
8007
8199
7838
8104
7751
7976
7754
7856
7829
7758
7942
7718
8010
7740
8021
7822
8011
7953
7975
8070
7943
8145
7957
8179
8028
8163
8163
8121
8297
8065
8398
8066
8456
8158
8488
8332
8490
8490
8462
8600
8411
8607
8358
8507
8329
8364
8344
8212
8354
8067
8297
7947
8118
7874
7936
7872
7774
7935
7691
8006
7693
8033
7737
7990
7834
7932
7952
7894
8055
7895
8109
7949
8102
8049
8054
8183
8025
8317
8026
8380
8058
8378
8168
8346
8337
8351
8524
8350
8633
8380
8638
8406
8532
8409
8378
8421
8227
8400
8129
8316
8058
8124
7999
7893
7971
7706
7979
7627
7994
7665
7987
7758
7939
7897
7894
8010
7861
8074
7872
8076
7960
8044
8067
7997
8194
7978
8298
8028
8332
8124
8296
8242
8224
8385
8214
8530
8274
8621
8364
8629
8441
8526
8479
8372
8464
8256
8416
8200
8335
8206
8150
8159
7910
8102
7753
8042
7679
7979
7723
7909
7826
7832
7948
7785
8018
7781
8041
7850
8031
7966
7993
8081
7959
8173
7961
8214
8031
8225
8174
8184
8307
8125
8418
8112
8503
8207
8561
8348
8548
8484
8474
8548
8373
8530
8292
8434
8252
8317
8279
8156
8273
7965
8173
7819
8055
7749
7912
7783
7792
7886
7731
7987
7706
8018
7740
8000
7836
7960
7954
7927
8080
7939
8153
7977
8154
8048
8113
8213
8107
8354
8055
8411
8083
8472
8234
8508
8415
8479
8546
8438
8625
8393
8595
8355
8482
8351
8332
8370
8180
8353
8048
8238
7931
8062
7890
7877
7903
7730
7971
7683
8045
7709
8038
7773
7976
7876
7911
7991
7883
8072
7907
8105
7975
8084
8092
8035
8230
8025
8353
8052
8396
8114
8358
8221
8308
8397
8313
8553
8320
8640
8363
8611
8399
8485
8424
8348
8436
8231
8402
8148
8292
8091
8057
8020
7855
8015
7700
8003
7634
7991
7702
7968
7810
7898
7916
7837
8017
7824
8062
7872
8053
7974
8014
8090
7977
8215
7991
8306
8063
8316
8204
8289
8320
8221
8448
8204
8573
8287
8623
8383
8601
8477
8496
8498
8338
8468
8246
8396
8209
8272
8204
8083
8161
7874
8101
7736
8027
7687
7942
7750
7869
7882
7801
7984
7761
8038
7787
8055
7871
8017
7993
7971
8100
7946
8172
7979
8206
8079
8200
8219
8145
8351
8094
8442
8125
8530
8246
8561
8398
8539
8529
8454
8572
8357
8530
8291
8429
8279
8285
8312
8116
8278
7940
8154
7822
8023
7781
7873
7836
7764
7949
7721
8022
7715
8039
7782
8006
7872
7956
8005
7932
8107
7953
8180
8013
8146
8118
8119
8259
8071
8374
8049
8415
8096
8428
8248
8441
8437
8422
8584
8409
8637
8365
8562
8318
8407
8324
8250
8341
8116
8322
8042
8215
7950
8003
7909
7812
7952
7713
8010
7696
8071
7753
8059
7850
7980
7931
7887
8010
7873
8093
7918
8103
8010
8068
8137
8019
8267
8017
8347
8054
8361
8145
8313
8277
8290
8461
8302
8591
8337
8656
8383
8594
8412
8443
8418
8299
8414
8193
8376
8149
8239
8095
8008
8051
7823
8027
7678
8007
7663
7989
7742
7943
7863
7866
7966
7820
8046
7827
8076
7898
8051
8004
8000
8122
7967
8229
7988
8271
8066
8260
8203
8219
8353
8175
8472
8189
8578
8285
8609
8408
8565
8496
8467
8540
8351
8498
8257
8381
8216
8230
8213
8035
8163
7839
8089
7730
8007
7719
7925
7801
7839
7935
7785
8031
7768
8064
7804
8050
7907
8021
8037
7982
8137
7962
8197
8007
8197
8125
8177
8269
8136
8403
8096
8468
8137
8521
8281
8533
8434
8503
8556
8424
8582
8331
8505
8281
8384
8277
8241
8303
8071
8260
7910
8117
7826
7984
7824
7837
7896
7741
7991
7706
8045
7733
8035
7802
7999
7926
7949
8044
7935
8122
7946
8152
8025
8119
8158
8089
8305
8064
8393
8069
8422
8149
8426
8301
8419
8489
8397
8628
8384
8644
8372
8553
8345
8404
8368
8274
8382
8136
8329
8033
8155
7951
7949
7934
7766
7970
7685
8029
7687
8029
7733
7993
7857
7940
7971
7881
8049
7873
8098
7928
8087
8021
8046
8160
8003
8279
8023
8352
8081
8334
8171
8271
8319
8244
8493
8272
8598
8316
8621
8374
8551
8427
8445
8491
8322
8455
8208
8361
8152
8182
8101
7954
8059
7779
8033
7660
8000
7682
7959
7781
7902
7900
7833
7997
7799
8060
7838
8074
7936
8071
8076
8022
8174
7983
8248
8022
8271
8137
8245
8263
8182
8387
8159
8524
8223
8603
8310
8597
8422
8516
8497
8386
8498
8282
8448
8230
8354
8229
8194
8218
7986
8155
7823
8074
7721
7962
7742
7867
7838
7794
7968
7752
8038
7757
8055
7823
8040
7941
8000
8067
7965
8152
7972
8194
8041
8181
8168
8150
8302
8092
8414
8087
8475
8172
8521
8342
8512
8498
8477
8600
8410
8588
8328
8495
8293
8369
8315
8220
8321
8062
8247
7912
8093
7841
7930
7858
7782
7927
7701
8011
7691
8049
7734
8022
7838
7986
7968
7950
8113
7960
8161
7982
8147
8049
8089
8178
8047
8317
8052
8399
8077
8402
8186
8399
8366
8388
8535
8370
8642
8368
8633
8358
8516
8354
8370
8374
8234
8384
8115
8302
8043
8130
7994
7919
7977
7736
7983
7648
8014
7684
8011
7764
7950
7876
7877
7981
7847
8069
7877
8104
7957
8079
8070
8030
8188
8010
8304
8046
8344
8133
8314
8239
8268
8418
8266
8571
8300
8651
8370
8644
8419
8536
8442
8371
8445
8259
8418
8188
8325
8156
8139
8115
7912
8069
7755
8028
7666
7975
7702
7923
7811
7855
7942
7797
8038
7803
8081
7856
8076
7950
8031
8070
7986
8191
7998
8247
8054
8248
8175
8216
8307
8161
8435
8151
8541
8242
8600
8350
8596
8476
8497
8530
8367
8513
8278
8446
8238
8330
8245
8168
8232
7956
8143
7803
8037
7740
7921
7785
7827
7914
7772
8012
7747
8066
7768
8051
7843
8004
7966
7973
8085
7957
8155
7981
8180
8069
8174
8237
8147
8355
8089
8426
8093
8479
8218
8507
8395
8481
8537
8432
8624
8381
8587
8319
8481
8322
8366
8372
8227
8349
8050
8214
7907
8032
7848
7866
7872
7737
7957
7683
8034
7709
8048
7760
8002
7873
7949
7992
7918
8102
7925
8137
7980
8113
8083
8070
8218
8054
8337
8050
8386
8102
8377
8234
8351
8415
8347
8566
8354
8661
8386
8663
8383
8490
8368
8347
8398
8222
8377
8117
8269
8041
8052
7990
7854
7980
7694
7995
7643
8014
7701
7992
7803
7928
7931
7871
8028
7844
8091
7882
8094
7974
8054
8088
8015
8207
8002
8294
8059
8316
8160
8271
8282
8229
8453
8236
8604
8305
8659
8388
8632
8448
8497
8465
8343
8456
8241
8396
8186
8292
8171
8078
8115
7869
8062
7723
8007
7683
7965
7752
7906
7887
7825
7990
7775
8053
7799
8075
7874
8064
7992
8025
8114
7992
8190
7998
8232
8083
8219
8211
8175
8350
8131
8458
8146
8554
8271
8597
8402
8569
8523
8468
8562
8340
8513
8269
8421
8242
8298
8259
8117
8236
7957
8162
7835
8029
7779
7889
7824
7781
7949
7722
8033
7714
8058
7782
8043
7880
7993
8004
7959
8108
7949
8155
7989
8152
8103
8145
8245
8092
8370
8071
8426
8115
8452
8263
8479
8445
8444
8590
8409
8642
8356
8576
8319
8450
8323
8302
8343
8152
8322
8032
8186
7920
8002
7885
7812
7919
7703
7985
7673
8040
7700
8029
7781
7966
7904
7909
8025
7896
8112
7931
8142
8018
8126
8131
8064
8269
8050
8351
8074
8382
8164
8364
8306
8341
8502
8356
8628
8361
8666
8370
8598
8375
8448
8381
8298
8397
8178
8344
8099
8205
8041
7998
8006
7792
7985
7647
7995
7663
7998
7737
7960
7876
7904
7986
7833
8049
7828
8098
7906
8086
8001
8036
8121
8001
8236
8021
8311
8105
8302
8225
8244
8375
8240
8543
8266
8645
8316
8664
8406
8583
8470
8444
8482
8308
8455
8226
8382
8187
8237
8169
8017
8105
7820
8048
7694
7965
7688
7898
7794
7845
7930
7788
8038
7789
8104
7834
8092
7909
8040
8016
7985
8124
7975
8196
8021
8224
8136
8198
8267
8150
8390
8110
8483
8165
8560
8314
8566
8458
8520
8565
8427
8566
8313
8521
8299
8440
8303
8263
8274
8085
8225
7905
8092
7815
7958
7802
7834
7891
7749
7997
7714
8058
7727
8050
7796
8020
7915
7963
8037
7940
8129
7950
8173
8033
8153
8154
8111
8273
8067
8384
8076
8424
8170
8455
8351
8467
8522
8430
8649
8385
8645
8332
8549
8321
8414
8343
8268
8356
8127
8302
8012
8121
7924
7940
7912
7764
7951
7673
8008
7669
8029
7729
7995
7833
7930
7950
7877
8060
7877
8117
7931
8115
8029
8079
8159
8045
8293
8052
8363
8099
8352
8208
8312
8375
8310
8562
8336
8663
8366
8676
8391
8574
8409
8420
8415
8281
8410
8176
8340
8111
8159
8044
7936
8020
7748
7997
7645
7981
7681
7977
7789
7926
7935
7857
8026
7810
8072
7828
8109
7950
8092
8050
8021
8149
8002
8254
8055
8300
8148
8258
8268
8196
8399
8184
8555
8261
8650
8362
8671
8485
8602
8551
8432
8515
8284
8452
8213
8356
8204
8189
8180
7973
8109
7800
8034
7709
7950
7748
7867
7866
7797
7979
7745
8046
7748
8066
7801
8039
7925
8005
8048
7972
8147
7976
8192
8038
8198
8170
8164
8318
8129
8420
8112
8501
8218
8554
8379
8533
8523
8483
8632
8402
8600
8309
8500
8284
8386
8289
8223
8295
8043
8196
7897
8056
7811
7894
7822
7757
7918
7700
8018
7685
8049
7727
8028
7822
7972
7958
7940
8079
7923
8144
7971
8155
8051
8115
8186
8080
8327
8070
8394
8099
8410
8226
8434
8438
8447
8590
8401
8673
8369
8646
8338
8516
8335
8377
8386
8278
8386
8114
8263
8001
8073
7955
7898
7960
7726
7982
7651
8020
7692
8018
7780
7966
7895
7891
8005
7853
8092
7879
8121
7938
8084
8053
8047
8179
8026
8299
8060
8339
8144
8307
8263
8280
8445
8282
8606
8319
8694
8383
8675
8436
8537
8444
8378
8435
8235
8401
8154
8303
8130
8102
8067
7879
8027
7715
7998
7668
7975
7723
7928
7836
7847
7959
7790
8043
7793
8096
7846
8089
7961
8060
8078
8015
8187
8016
8270
8094
8273
8207
8231
8318
8173
8457
8185
8583
8288
8631
8394
8617
8499
8509
8546
8367
8519
8269
8456
8234
8337
8238
8166
8205
7947
8106
7792
8005
7720
7894
7798
7829
7933
7761
8007
7720
8065
7765
8082
7862
8050
7988
8001
8095
7970
8173
7999
8202
8094
8187
8228
8134
8357
8105
8440
8131
8498
8260
8524
8425
8497
8570
8440
8644
8357
8588
8296
8476
8276
8337
8303
8170
8280
8012
8150
7881
8007
7842
7849
7873
7723
7958
7699
8059
7713
8050
7758
8001
7880
7946
8006
7922
8111
7926
8151
7985
8147
8090
8103
8237
8079
8350
8079
8391
8133
8389
8283
8395
8482
8389
8626
8376
8678
8362
8619
8334
8476
8343
8329
8378
8200
8356
8113
8262
8041
8040
7975
7823
7944
7673
7982
7635
8006
7719
7990
7819
7922
7942
7849
8038
7842
8112
7896
8125
7980
8096
8105
8050
8230
8049
8310
8087
8326
8184
8274
8315
8247
8494
8270
8634
8319
8703
8393
8643
8437
8478
8440
8307
8426
8199
8384
8148
8258
8126
8039
8060
7839
8024
7715
8009
7753
8018
7818
7922
7915
7821
8005
7772
8070
7788
8104
7884
8091
8006
8048
8121
8018
8207
8022
8242
8089
8220
8211
8159
8339
8133
8475
8194
8591
8310
8616
8431
8561
8535
8458
8565
8324
8518
8249
8423
8226
8294
8233
8098
8180
7903
8081
7784
7971
7753
7850
7823
7769
7955
7725
8039
7711
8070
7777
8053
7886
8013
8019
7979
8133
7970
8179
8011
8177
8111
8154
8261
8106
8372
8092
8436
8158
8482
8310
8499
8477
8474
8627
8411
8660
8332
8581
8295
8445
8305
8311
8324
8145
8287
7997
8139
7898
7975
7875
7794
7929
7712
8009
7690
8054
7730
8032
7801
7974
7920
7920
8063
7915
8142
7936
8154
8008
8116
8120
8086
8273
8082
8366
8098
8377
8183
8367
8334
8352
8541
8365
8678
8362
8680
8369
8606
8372
8460
8386
8307
8405
8210
8367
8114
8200
8012
7974
7980
7787
7986
7676
7999
7676
8001
7753
7949
7873
7879
7984
7838
8083
7844
8129
7899
8113
8010
8073
8128
8035
8245
8050
8309
8115
8295
8229
8243
8386
8229
8539
8260
8646
8330
8681
8413
8586
8450
8419
8455
8264
8433
8177
8379
8178
8235
8149
8009
8097
7848
8067
7757
8006
7744
7916
7814
7826
7930
7758
8020
7740
8081
7797
8086
7890
8049
8007
7993
8110
7973
8181
8025
8233
8145
8206
8282
8180
8429
8181
8534
8228
8585
8336
8577
8483
8518
8584
8410
8577
8316
8556
8284
8420
8241
8251
8248
8064
8178
7884
8062
7795
7927
7788
7813
7889
7738
7994
7710
8056
7724
8061
7805
8022
7926
7979
8049
7954
8143
7961
8180
8029
8170
8166
8140
8305
8109
8404
8107
8445
8201
8478
8386
8477
8545
8436
8661
8393
8656
8323
8553
8283
8413
8319
8272
8336
8122
8269
7984
8090
7914
7922
7903
7760
7949
7681
8018
7690
8048
7749
8000
7851
7938
7981
7902
8086
7885
8139
7936
8152
8036
8102
8166
8072
8293
8077
8363
8136
8355
8231
8330
8407
8331
8579
8327
8691
8350
8684
8382
8565
8387
8408
8398
8261
8405
8152
8312
8072
8123
8017
7917
7983
7733
7984
7666
7997
7707
7973
7800
7895
7910
7818
8018
7798
8107
7847
8125
7913
8086
8044
8054
8178
8040
8277
8088
8312
8175
8269
8276
8204
8430
8210
8584
8282
8652
8364
8653
8453
8537
8503
8404
8521
8280
8462
8203
8356
8184
8180
8137
7953
8074
7796
8013
7723
7936
7763
7872
7881
7796
7993
7744
8064
7742
8081
7807
8065
7931
8020
8057
7982
8171
8000
8222
8073
8238
8226
8230
8371
8174
8447
8146
8517
8241
8562
8395
8557
8546
8487
8633
8376
8595
8284
8494
8233
8362
8246
8203
8240
8014
8145
7870
8019
7797
7879
7837
7772
7937
7713
8033
7710
8063
7743
8046
7843
7992
7977
7945
8088
7935
8159
7972
8183
8065
8157
8199
8102
8309
8079
8381
8110
8407
8242
8428
8425
8409
8577
8390
8688
8382
8668
8330
8526
8329
8390
8379
8284
8398
8147
8274
7986
8042
7915
7842
7910
7699
7956
7642
8008
7693
8005
7775
7944
7892
7877
8012
7851
8115
7892
8157
7954
8119
8064
8082
8211
8078
8320
8090
8340
8163
8302
8274
8281
8465
8297
8625
8322
8710
8366
8666
8403
8513
8419
8359
8433
8228
8397
8137
8288
8073
8063
8017
7871
8014
7728
7980
7665
7954
7737
7927
7870
7863
7979
7789
8067
7790
8110
7853
8114
7973
8086
8090
8035
8196
8030
8271
8095
8273
8214
8231
8341
8197
8481
8212
8605
8306
8646
8424
8613
8504
8492
8530
8336
8512
8240
8437
8201
8318
8192
8121
8148
7920
8073
7782
7981
7733
7897
7805
7818
7938
7752
8029
7721
8080
7765
8079
7863
8052
7988
8010
8111
7973
8175
8002
8207
8088
8193
8224
8160
8360
8121
8453
8159
8512
8300
8555
8456
8509
8596
8428
8653
8347
8603
8290
8497
8303
8380
8329
8203
8264
7998
8129
7874
7987
7845
7837
7878
7716
7968
7680
8031
7699
8041
7770
8001
7884
7934
8011
7901
8102
7915
8155
7974
8158
8099
8139
8246
8107
8375
8164
8473
8239
8434
8334
8420
8521
8398
8670
8390
8726
8364
8628
8339
8479
8348
8328
8371
8201
8333
8074
8193
7974
7990
7942
7816
7949
7694
7985
7660
8005
7730
7979
7833
7908
7963
7853
8072
7833
8130
7885
8134
7981
8122
8108
8072
8238
8073
8322
8117
8330
8204
8271
8352
8262
8531
8294
8654
8349
8711
8398
8628
8430
8456
8447
8307
8439
8199
8389
8139
8243
8089
8020
8039
7837
8004
7708
7971
7705
7934
7798
7879
7923
7801
8021
7759
8085
7787
8111
7872
8086
7992
8033
8113
8018
8220
8043
8259
8136
8245
8258
8205
8395
8174
8512
8232
8608
8338
8611
8455
8539
8546
8427
8568
8302
8518
8231
8431
8216
8286
8207
8071
8137
7894
8056
7791
7951
7771
7849
7873
7779
7981
7723
8059
7716
8073
7782
8047
7896
8008
8029
7965
8148
7969
8202
8034
8209
8152
8184
8293
8147
8390
8126
8445
8204
8496
8369
8494
8508
8442
8628
8371
8648
8308
8569
8271
8433
8275
8277
8283
8108
8229
7956
8088
7875
7920
7865
7763
7923
7705
8036
7726
8067
7745
8031
7838
7962
7955
7906
8085
7900
8144
7919
8171
8013
8151
8160
8125
8293
8106
8381
8159
8404
8255
8376
8395
8347
8562
8336
8690
8362
8708
8363
8587
8357
8419
8384
8276
8390
8161
8334
8069
8141
7984
7932
7967
7777
7980
7679
7992
7700
7973
7776
7919
7890
7826
8001
7799
8090
7820
8130
7895
8114
8023
8102
8166
8051
8252
8070
8314
8160
8292
8264
8244
8428
8264
8612
8337
8705
8387
8673
8432
8551
8465
8381
8468
8246
8451
8174
8372
8156
8199
8093
7963
8042
7803
7991
7704
7945
7748
7892
7861
7819
7975
7756
8069
7760
8108
7810
8109
7928
8062
8050
8017
8167
8007
8237
8071
8256
8183
8223
8310
8169
8420
8155
8518
8248
8585
8390
8597
8529
8508
8607
8376
8578
8255
8491
8197
8379
8219
8234
8214
8024
8125
7864
8021
7780
7892
7808
7785
7916
7729
8016
7709
8067
7729
8061
7828
8014
7956
7968
8084
7947
8177
7972
8201
8050
8189
8186
8157
8314
8112
8385
8126
8434
8254
8474
8433
8449
8600
8424
8699
8377
8669
8317
8548
8294
8400
8311
8248
8327
8107
8247
7954
8041
7890
7881
7913
7755
7973
7699
8040
7717
8045
7792
7991
7898
7926
8021
7875
8135
7887
8174
7955
8170
8059
8128
8187
8093
8302
8103
8359
8164
8353
8288
8330
8466
8338
8623
8347
8721
8373
8691
8385
8544
8387
8369
8400
8226
8393
8140
8307
8059
8096
8000
7901
7984
7744
7975
7680
7970
7733
7938
7830
7875
7947
7791
8044
7778
8116
7833
8125
7932
8096
8066
8073
8198
8068
8284
8106
8319
8198
8254
8295
8204
8453
8227
8598
8305
8656
8405
8641
8483
8502
8515
8350
8504
8232
8459
8183
8347
8164
8154
8095
7931
8045
7778
7975
7723
7918
7786
7848
7912
7775
8014
7725
8070
7745
8088
7827
8073
7964
8037
8115
8026
8223
8039
8272
8102
8234
8202
8174
8329
8134
8429
8155
8518
8281
8567
8448
8561
8591
8462
8639
8334
8586
8249
8488
8228
8359
8238
8186
8214
7984
8104
7846
7976
7809
7856
7854
7754
7959
7715
8046
7723
8067
7761
8037
7880
7976
7999
7936
8111
7921
8170
7966
8188
8069
8166
8222
8142
8331
8132
8425
8198
8434
8301
8435
8504
8429
8666
8401
8716
8347
8635
8316
8507
8330
8372
8371
8240
8345
8064
8165
7915
7977
7889
7834
7916
7695
7963
7667
8022
7721
8002
7808
7937
7938
7864
8053
7841
8138
7882
8180
7963
8153
8079
8091
8207
8082
8316
8114
8349
8204
8313
8334
8296
8504
8311
8648
8348
8716
8386
8644
8406
8485
8425
8325
8420
8194
8389
8114
8270
8058
8048
7992
7845
7976
7717
7970
7704
7957
7781
7916
7907
7833
8005
7781
8094
7787
8137
7864
8137
7978
8085
8098
8039
8216
8051
8285
8121
8275
8231
8234
8358
8200
8502
8243
8623
8335
8661
8453
8602
8537
8456
8548
8313
8522
8209
8447
8188
8318
8172
8103
8111
7906
8049
7777
7962
7755
7887
7847
7804
7961
7748
8047
7735
8094
7779
8087
7888
8055
8023
8018
8146
7983
8220
8018
8242
8118
8216
8240
8162
8358
8125
8441
8193
8514
8353
8537
8499
8492
8612
8400
8643
8293
8577
8236
8455
8241
8326
8258
8136
8212
7955
8089
7851
7945
7831
7807
7886
7711
7981
7685
8040
7716
8030
7785
7984
7923
7949
8072
7939
8181
7939
8207
7990
8175
8108
8148
8252
8119
8352
8130
8389
8203
8394
8373
8406
8545
8388
8695
8376
8722
8345
8618
8336
8470
8360
8323
8367
8169
8318
8021
8135
7933
7951
7912
7793
7925
7687
7972
7687
7998
7758
7968
7881
7916
8015
7871
8128
7844
8155
7884
8151
7979
8120
8105
8082
8237
8090
8322
8135
8332
8238
8286
8387
8276
8562
8306
8659
8357
8702
8419
8607
8443
8440
8453
8283
8458
8195
8404
8131
8227
8044
7989
7995
7797
7964
7683
7935
7704
7913
7803
7859
7936
7778
8037
7756
8131
7817
8132
7903
8157
8064
8089
8167
8038
8242
8067
8298
8162
8269
8269
8212
8400
8196
8527
8275
8628
8379
8646
8494
8546
8576
8407
8573
8281
8523
8208
8434
8194
8256
8150
8031
8077
7851
8002
7761
7922
7778
7831
7878
7763
7996
7729
8063
7741
8085
7802
8057
7917
8000
8040
7963
8161
7969
8224
8025
8224
8155
8202
8294
8159
8384
8139
8450
8239
8514
8410
8499
8559
8463
8675
8383
8674
8297
8570
8258
8435
8273
8272
8277
8098
8198
7940
8074
7870
7910
7859
7773
7928
7707
8014
7702
8035
7738
8008
7841
7951
7966
7903
8092
7883
8164
7916
8184
8004
8155
8147
8134
8286
8113
8359
8148
8383
8256
8388
8430
8386
8602
8381
8723
8376
8717
8360
8581
8354
8417
8381
8271
8385
8137
8305
8023
8110
7948
7925
7924
7762
7943
7674
7976
7717
7975
7793
7922
7914
7835
8028
7804
8116
7828
8158
7901
8137
8014
8093
8149
8074
8276
8093
8322
8166
8293
8271
8261
8439
8265
8591
8305
8665
8374
8659
8432
8547
8474
8379
8477
8238
8457
8160
8382
8139
8197
8065
7968
8014
7792
7978
7722
7942
7758
7896
7882
7829
7987
7756
8074
7761
8116
7816
8124
7926
8082
8056
8022
8170
8013
8251
8073
8279
8183
8239
8310
8194
8434
8194
8536
8290
8599
8410
8602
8536
8498
8607
8351
8578
8237
8497
8193
8400
8211
8237
8199
8028
8117
7864
8005
7791
7896
7830
7799
7915
7730
8016
7707
8063
7732
8058
7837
8036
7977
7994
8122
7980
8225
7998
8246
8057
8213
8169
8166
8307
8140
8386
8131
8434
8261
8468
8444
8461
8618
8427
8709
8353
8647
8281
8529
8253
8388
8288
8232
8285
8063
8181
7911
8016
7849
7858
7866
7736
7940
7692
8010
7713
8027
7779
7979
7899
7931
8056
7912
8160
7884
8183
7936
8191
8048
8154
8189
8127
8327
8162
8394
8194
8355
8277
8332
8466
8342
8610
8357
8704
8366
8675
8366
8525
8367
8361
8391
8219
8387
8112
8288
8014
8085
7968
7892
7952
7760
7971
7697
7974
7750
7943
7844
7875
7965
7812
8076
7799
8145
7848
8162
7942
8130
8055
8072
8187
8065
8290
8109
8311
8188
8270
8312
8234
8476
8279
8639
8345
8701
8421
8641
8474
8485
8494
8328
8491
8212
8454
8146
8344
8110
8128
8052
7910
8009
7768
7958
7719
7911
7795
7866
7920
7783
8022
7742
8092
7765
8116
7856
8112
7976
8043
8099
7996
8199
8008
8256
8081
8256
8205
8210
8337
8172
8454
8232
8561
8342
8585
8478
8571
8605
8460
8637
8322
8585
8231
8486
8203
8360
8220
8187
8186
7980
8096
7854
7981
7793
7852
7850
7761
7957
7718
8042
7706
8057
7761
8037
7880
7982
8018
7957
8164
7945
8216
7977
8217
8077
8192
8213
8160
8332
8128
8388
8183
8429
8338
8458
8517
8438
8668
8408
8744
8370
8649
8302
8499
8285
8333
8303
8175
8272
8020
8149
7906
7983
7854
7827
7903
7733
7982
7717
8028
7745
8003
7827
7943
7949
7882
8074
7859
8169
7884
8203
7962
8173
8083
8132
8221
8114
8318
8123
8346
8193
8327
8334
8305
8511
8330
8648
8357
8712
8385
8651
8413
8496
8426
8309
8410
8163
8360
8064
8226
7989
8020
7957
7843
7959
7733
7962
7717
7969
7800
7922
7912
7846
8023
7780
8110
7797
8157
7868
8154
7978
8102
8108
8053
8220
8063
8298
8127
8305
8230
8248
8356
8220
8507
8281
8629
8350
8663
8448
8586
8504
8423
8537
8314
8536
8202
8443
8153
8313
8138
8086
8078
7899
8013
7772
7951
7764
7890
7857
7837
7983
7767
8052
7737
8094
7777
8092
7881
8049
8014
8015
8149
7986
8219
8008
8258
8114
8233
8230
8185
8348
8148
8444
8219
8536
8373
8531
8517
8498
8640
8404
8649
8289
8581
8214
8458
8227
8321
8243
8128
8182
7939
8070
7844
7948
7820
7830
7893
7738
7985
7717
8048
7723
8048
7808
8007
7937
7953
8062
7917
8182
7936
8242
8009
8228
8121
8193
8248
8155
8358
8145
8398
8229
8429
8407
8447
8561
8411
8692
8369
8701
8326
8594
8284
8440
8305
8282
8329
8126
8283
7985
8123
7898
7956
7886
7800
7938
7745
8001
7724
8007
7777
7961
7873
7899
8005
7855
8110
7841
8177
7890
8190
7986
8151
8120
8118
8251
8100
8327
8139
8338
8240
8303
8395
8301
8565
8313
8664
8365
8692
8384
8557
8402
8402
8429
8251
8437
8144
8376
8085
8216
8001
7985
7979
7832
7994
7771
7987
7755
7951
7846
7884
7956
7799
8073
7804
8155
7824
8165
7887
8119
8007
8063
8152
8035
8255
8067
8291
8145
8285
8260
8226
8391
8214
8534
8293
8624
8386
8633
8483
8527
8545
8378
8547
8235
8500
8163
8418
8149
8248
8116
8022
8052
7848
7988
7760
7922
7774
7841
7882
7790
8000
7741
8074
7749
8094
7814
8083
7940
8048
8114
8033
8215
7997
8259
8050
8280
8174
8241
8295
8184
8384
8164
8465
8262
8524
8422
8516
8576
8450
8662
8354
8631
8266
8546
8219
8423
8249
8265
8251
8078
8164
7896
8029
7814
7892
7827
7782
7911
7727
8007
7722
8042
7748
8019
7856
7964
7981
7914
8115
7887
8190
7919
8211
8005
8188
8146
8162
8283
8131
8361
8161
8399
8277
8419
8469
8418
8599
8389
8713
8366
8695
8328
8561
8324
8404
8363
8250
8362
8104
8284
7980
8096
7921
7929
7910
7780
7948
7721
7995
7747
7992
7828
7934
7941
7868
8056
7824
8160
7846
8192
7907
8166
8014
8118
8151
8087
8276
8101
8323
8165
8311
8274
8292
8451
8309
8616
8336
8695
8391
8674
8436
8527
8454
8357
8466
8228
8454
8137
8363
8071
8166
8008
7951
7977
7785
7948
7714
7932
7766
7898
7876
7836
7988
7770
8091
7801
8166
7853
8161
7952
8113
8075
8056
8202
8040
8289
8084
8297
8174
8246
8280
8203
8421
8221
8548
8323
8606
8430
8593
8534
8465
8566
8318
8551
8202
8496
8163
8379
8162
8200
8123
7977
8061
7848
8006
7809
7929
7846
7827
7935
7758
8017
7712
8053
7733
8059
7840
8036
7978
7979
8116
7956
8207
7973
8269
8087
8272
8206
8212
8303
8152
8385
8175
8456
8312
8498
8476
8471
8623
8415
8681
8318
8621
8247
8525
8250
8385
8273
8217
8267
8036
8155
7891
8012
7830
7865
7858
7754
7948
7725
8024
7733
8027
7796
7989
7919
7927
8053
7897
8163
7878
8220
7931
8199
8030
8172
8187
8148
8303
8141
8374
8189
8374
8326
8389
8507
8384
8656
8377
8716
8369
8657
8349
8504
8346
8332
8369
8173
8346
8050
8236
7951
8047
7908
7870
7910
7728
7931
7696
7974
7792
7984
7902
7902
7999
7844
8122
7823
8179
7867
8196
7956
8151
8082
8111
8205
8080
8304
8114
8333
8201
8293
8325
8271
8496
8311
8628
8345
8684
8411
8628
8458
8459
8481
8292
8486
8189
8452
8107
8318
8061
8099
8014
7909
7988
7772
7950
7741
7915
7818
7869
7933
7798
8030
7754
8107
7775
8128
7858
8118
7987
8051
8118
8007
8208
8011
8282
8087
8290
8208
8234
8334
8202
8452
8253
8563
8365
8594
8491
8547
8605
8431
8618
8292
8577
8205
8486
8186
8344
8180
8141
8125
7922
8034
7793
7947
7779
7865
7850
7781
7965
7772
8088
7773
8098
7813
8070
7922
8019
8049
7968
8173
7929
8223
7966
8236
8068
8222
8211
8189
8339
8165
8416
8221
8460
8372
8489
8530
8459
8660
8382
8681
8297
8604
8247
8467
8251
8303
8271
8148
8248
7987
8131
7886
8000
7880
7878
7932
7781
8004
7768
8057
7792
8018
7848
7948
7954
7882
8083
7855
8181
7876
8205
7953
8182
8072
8157
8217
8125
8321
8127
8347
8210
8357
8365
8359
8542
8347
8661
8358
8701
8367
8603
8366
8446
8396
8283
8408
8153
8370
8042
8218
7948
8014
7921
7840
7929
7739
7952
7724
7954
7793
7917
7905
7830
8017
7782
8106
7799
8175
7874
8170
7988
8131
8129
8072
8237
8077
8316
8128
8322
8219
8268
8371
8267
8532
8320
8636
8372
8661
8450
8580
8505
8408
8514
8250
8505
8162
8434
8113
8291
8059
8051
8016
7865
7977
7751
7924
7738
7886
7846
7832
7972
7760
8041
7744
8100
7791
8113
7909
8116
8080
8041
8164
7994
8262
8027
8294
8112
8267
8241
8222
8357
8204
8480
8290
8562
8403
8560
8534
8496
8627
8377
8618
8263
8565
8203
8461
8212
8305
8209
8099
8146
7910
8051
7807
7931
7795
7829
7875
7750
7983
7737
8047
7737
8040
7805
8007
7955
7968
8095
7930
8205
7935
8253
7996
8240
8116
8219
8259
8190
8364
8168
8418
8252
8455
8422
8460
8572
8420
8690
8365
8677
8303
8580
8268
8432
8306
8281
8320
8116
8261
7955
8104
7870
7943
7855
7798
7907
7719
7978
7738
8010
7793
7966
7884
7899
8014
7854
8143
7857
8212
7903
8220
7994
8173
8132
8150
8264
8134
8349
8150
8346
8242
8344
8423
8356
8592
8358
8697
8376
8682
8383
8546
8390
8397
8438
8248
8416
8106
8354
8027
8180
7960
8000
7969
7838
7950
7741
7952
7753
7939
7846
7886
7947
7806
8057
7781
8126
7804
8163
7890
8137
8020
8092
8176
8071
8296
8099
8333
8140
8288
8228
8232
8379
8246
8544
8317
8627
8420
8642
8496
8522
8535
8373
8571
8251
8530
8153
8407
8095
8217
8055
7992
8010
7827
7972
7755
7924
7789
7865
7888
7793
7993
7744
8069
7758
8107
7825
8104
7958
8046
8092
7988
8188
7968
8255
8021
8280
8133
8250
8267
8202
8383
8206
8482
8305
8553
8445
8536
8586
8453
8656
8341
8622
8243
8544
8205
8417
8209
8240
8207
8036
8138
7881
8031
7805
7913
7826
7817
7911
7754
8007
7751
8050
7782
8038
7884
7990
8019
7939
8143
7899
8213
7924
8232
8006
8221
8152
8193
8281
8169
8357
8163
8401
8275
8439
8474
8436
8630
8409
8708
8357
8664
8293
8537
8298
8391
8332
8223
8337
8073
8243
7934
8090
7879
7920
7891
7803
7941
7749
8008
7766
7997
7832
7938
7934
7873
8055
7833
8174
7855
8213
7913
8188
8011
8133
8151
8112
8285
8109
8342
8158
8325
8269
8323
8460
8356
8641
8389
8715
8386
8659
8414
8518
8435
8352
8456
8211
8450
8098
8345
8017
8136
7968
7944
7941
7787
7935
7730
7936
7771
7915
7888
7854
7995
7796
8084
7774
8139
7835
8161
7939
8120
8063
8056
8188
8040
8289
8082
8322
8170
8292
8276
8242
8426
8281
8574
8350
8630
8448
8596
8523
8459
8553
8293
8535
8186
8501
8141
8382
8121
8182
8069
7963
8023
7812
7960
7756
7912
7814
7853
7936
7798
8029
7753
8082
7766
8079
7857
8063
7978
7999
8118
7952
8204
7957
8266
8041
8268
8166
8227
8294
8195
8418
8250
8515
8354
8537
8485
8505
8617
8424
8664
8305
8611
8217
8502
8209
8376
8239
8203
8218
7995
8119
7860
8014
7817
7889
7856
7791
7945
7760
8023
7765
8039
7815
8009
7932
7962
8075
7916
8182
7889
8228
7931
8227
8030
8196
8168
8163
8294
8139
8357
8192
8405
8351
8440
8528
8414
8657
8380
8696
8351
8633
8330
8523
8376
8376
8394
8186
8345
8032
8214
7912
8045
7875
7879
7892
7776
7944
7744
7983
7781
7963
7854
7894
7966
7835
8094
7820
8176
7859
8216
7955
8186
8070
8136
8214
8107
8321
8129
8353
8193
8328
8330
8321
8503
8342
8633
8377
8688
8412
8624
8443
8457
8469
8284
8467
8170
8434
8077
8304
8006
8079
7960
7898
7943
7772
7954
7774
7959
7835
7898
7931
7821
8029
7779
8113
7792
8151
7871
8137
7991
8096
8133
8031
8232
8038
8312
8088
8311
8198
8261
8320
8236
8473
8294
8587
8376
8610
8492
8550
8578
8415
8590
8261
8560
8168
8485
8160
8346
8142
8122
8075
7903
8007
7767
7931
7743
7870
7834
7817
7945
7744
8024
7741
8061
7777
8048
7895
8004
8032
7958
8158
7930
8239
7983
8319
8106
8270
8208
8220
8345
8209
8441
8283
8516
8415
8531
8556
8488
8667
8405
8686
8298
8604
8242
8477
8247
8320
8262
8133
8214
7943
8099
7833
7966
7809
7844
7871
7749
7956
7745
8011
7756
7997
7838
7953
7968
7896
8107
7878
8204
7887
8236
7957
8214
8089
8202
8233
8165
8337
8153
8374
8232
8393
8378
8408
8548
8378
8684
8370
8692
8346
8584
8334
8428
8353
8261
8379
8111
8339
7990
8184
7910
8014
7898
7857
7920
7785
7981
7770
7977
7812
7920
7900
7850
8010
7787
8116
7812
8191
7889
8205
8017
8178
8154
8108
8252
8080
8333
8132
8342
8221
8310
8372
8310
8535
8343
8638
8406
8664
8453
8558
8473
8386
8494
8229
8486
8128
8418
8071
8265
8023
8042
7985
7858
7951
7743
7929
7742
7904
7849
7852
7960
7775
8047
7761
8110
7801
8128
7915
8106
8049
8038
8177
8008
8276
8031
8320
8106
8278
8226
8241
8355
8233
8491
8316
8582
8415
8600
8538
8508
8620
8373
8612
8250
8555
8184
8452
8179
8289
8160
8060
8093
7875
8023
7784
7935
7789
7851
7881
7794
7977
7756
8037
7757
8054
7840
8025
7964
7971
8109
7949
8234
7947
8278
7986
8267
8108
8233
8238
8186
8344
8186
8430
8285
8475
8427
8475
8587
8443
8702
8398
8700
8323
8578
8264
8440
8308
8284
8320
8099
8237
7924
8103
7843
7949
7825
7819
7895
7761
7982
7757
8003
7797
7976
7890
7912
8020
7856
8130
7839
8206
7889
8223
7981
8186
8121
8154
8263
8128
8341
8150
8363
8255
8372
8425
8386
8584
8380
8688
8385
8680
8375
8546
8393
8392
8429
8246
8436
8107
8359
7996
8176
7921
7970
7889
7801
7908
7731
7934
7755
7935
7842
7884
7948
7822
8057
7795
8144
7821
8183
7917
8158
8033
8104
8160
8064
8286
8074
8329
8133
8318
8240
8277
8403
8304
8560
8351
8638
8422
8622
8481
8490
8508
8342
8535
8212
8500
8112
8391
8065
8205
8010
7975
7978
7813
7959
7750
7926
7794
7911
7914
7857
8013
7788
8097
7805
8148
7873
8129
7964
8063
8090
7998
8210
7988
8299
8040
8313
8132
8271
8255
8229
8394
8254
8517
8352
8576
8461
8565
8574
8464
8633
8312
8587
8201
8523
8174
8402
8182
8219
8160
7988
8079
7823
7993
7784
7924
7820
7829
7905
7766
7995
7761
8040
7792
8035
7881
7991
8009
7928
8133
7893
8219
7924
8256
7994
8249
8152
8217
8275
8179
8356
8186
8442
8351
8507
8500
8458
8647
8432
8719
8370
8659
8306
8532
8291
8379
8323
8206
8318
8039
8222
7899
8074
7838
7911
7848
7796
7915
7753
7981
7773
7988
7834
7950
7949
7888
8068
7835
8167
7848
8225
7904
8201
8018
8166
8164
8133
8293
8122
8364
8163
8369
8302
8372
8485
8385
8618
8391
8682
8389
8642
8392
8485
8410
8314
8434
8180
8424
8064
8314
7960
8111
7917
7925
7913
7780
7928
7737
7936
7791
7919
7876
7848
7982
7781
8077
7770
8129
7825
8145
7934
8112
8082
8092
8245
8091
8366
8133
8377
8184
8314
8285
8272
8434
8308
8574
8370
8649
8466
8608
8537
8463
8566
8323
8572
8200
8503
8124
8374
8090
8158
8033
7937
8002
7798
7953
7741
7898
7797
7852
7908
7798
7997
7757
8071
7776
8088
7874
8067
8003
8000
8133
7966
8251
7994
8319
8071
8323
8189
8269
8309
8214
8403
8258
8515
8370
8530
8483
8498
8609
8418
8660
8309
8602
8217
8502
8216
8377
8252
8220
8218
7960
8098
7832
8003
7792
7890
7843
7816
7942
7768
8019
7782
8039
7841
8015
7937
7954
8075
7907
8198
7897
8261
7939
8255
8047
8232
8193
8191
8310
8164
8369
8215
8426
8355
8453
8519
8428
8658
8386
8694
8337
8607
8292
8469
8319
8311
8352
8159
8334
7996
8199
7872
8036
7840
7875
7866
7777
7932
7757
7987
7796
7977
7885
7922
8006
7850
8099
7817
8165
7843
8183
7913
8154
8043
8111
8198
8090
8316
8124
8378
8213
8374
8344
8355
8512
8369
8638
8407
8680
8424
8591
8432
8428
8457
8256
8470
8133
8425
8043
8281
7961
8063
7934
7871
7916
7750
7930
7743
7935
7818
7892
7923
7827
8030
7784
8116
7809
8164
7883
8125
7993
8077
8138
8030
8263
8044
8352
8138
8385
8233
8305
8330
8271
8494
8341
8596
8403
8628
8506
8558
8588
8417
8602
8291
8591
8202
8494
8141
8326
8110
8092
8060
7896
8012
7772
7950
7770
7892
7843
7843
7963
7792
8028
7763
8066
7825
8061
7935
8021
8079
7969
8192
7944
8273
7978
8299
8068
8270
8205
8227
8322
8209
8435
8283
8511
8416
8516
8557
8476
8658
8377
8640
8265
8555
8201
8439
8214
8270
8223
8067
8159
7881
8063
7784
7953
7793
7866
7865
7787
7953
7767
8031
7809
8016
7869
7962
7991
7922
8142
7893
8227
7896
8268
7969
8235
8092
8206
8243
8179
8352
8163
8401
8253
8433
8421
8445
8570
8426
8689
8391
8686
8349
8568
8331
8415
8357
8253
8389
8111
8338
7961
8162
7864
7990
7848
7828
7874
7734
7931
7748
7963
7809
7915
7908
7857
8026
7815
8133
7824
8194
7880
8186
7983
8140
8128
8102
8257
8098
8356
8136
8369
8228
8355
8392
8350
8550
8368
8648
8410
8651
8450
8531
8465
8360
8486
8208
8475
8107
8405
8039
8235
7979
8021
7953
7834
7937
7748
7946
7766
7925
7855
7864
7956
7800
8050
7775
8104
7816
8136
7922
8102
8053
8038
8192
8004
8292
8030
8335
8102
8310
8219
8264
8368
8284
8508
8342
8588
8446
8589
8533
8487
8576
8333
8576
8210
8531
8154
8427
8148
8249
8117
8009
8041
7830
7983
7745
7914
7767
7864
7883
7835
8009
7805
8071
7799
8051
7848
8019
7967
7961
8108
7918
8213
7912
8261
7984
8293
8118
8287
8304
8266
8404
8246
8467
8335
8533
8476
8520
8619
8448
8684
8362
8648
8285
8546
8266
8420
8282
8242
8280
8043
8203
7883
8076
7804
7941
7808
7836
7892
7780
7967
7760
8001
7809
7973
7906
7905
8030
7869
8154
7856
8237
7904
8243
7997
8211
8154
8175
8275
8151
8358
8151
8389
8279
8419
8458
8434
8608
8432
8696
8398
8666
8377
8520
8366
8348
8401
8193
8395
8049
8317
7932
8129
7879
7957
7875
7803
7902
7746
7953
7799
7986
7883
7907
7959
7840
8078
7823
8174
7847
8194
7930
8168
8052
8115
8179
8057
8289
8072
8357
8152
8364
8280
8349
8441
8358
8582
8383
8650
8426
8610
8474
8470
8498
8300
8503
8169
8491
8096
8393
8051
8188
7991
7961
7960
7791
7944
7742
7924
7792
7908
7894
7845
7997
7800
8081
7790
8104
7861
8114
7977
8052
8117
7991
8222
7981
8313
8037
8333
8146
8301
8257
8254
8400
8289
8536
8374
8571
8477
8531
8561
8438
8601
8296
8578
8194
8505
8167
8387
8173
8188
8132
7960
8065
7801
7981
7740
7907
7798
7843
7912
7795
7998
7778
8045
7817
8040
7905
7997
8046
7948
8184
7918
8273
7951
8303
8035
8277
8161
8227
8281
8190
8374
8218
8459
8346
8502
8493
8469
8623
8406
8659
8325
8609
8271
8493
8272
8341
8309
8172
8293
7991
8190
7856
8075
7826
7922
7842
7803
7912
7763
7971
7773
7980
7846
7944
7962
7884
8080
7851
8195
7868
8239
7929
8222
8041
8181
8197
8141
8313
8125
8376
8169
8387
8308
8401
8488
8399
8618
8425
8712
8432
8636
8399
8449
8395
8267
8417
8135
8405
8034
8297
7926
8092
7897
7910
7895
7786
7943
7756
7971
7810
7937
7894
7881
8010
7823
8110
7820
8178
7866
8178
7968
8125
8102
8073
8229
8047
8333
8088
8364
8175
8337
8297
8324
8467
8354
8597
8402
8640
8460
8575
8515
8422
8531
8257
8533
8156
8485
8099
8350
8060
8119
7994
7897
7967
7767
7936
7738
7908
7808
7876
7920
7813
7997
7770
8076
7802
8086
7892
8048
8012
8000
8167
7963
8253
7967
8331
8071
8359
8209
8289
8298
8232
8417
8282
8529
8408
8591
8557
8538
8622
8404
8623
8281
8586
8198
8479
8199
8332
8219
8145
8174
7928
8087
7796
7987
7754
7889
7816
7822
7927
7769
7991
7766
8016
7833
7990
7946
7954
8101
7916
8203
7896
8270
7945
8271
8074
8260
8212
8213
8330
8181
8396
8238
8458
8387
8485
8529
8463
8666
8408
8671
8324
8581
8296
8443
8309
8281
8332
8112
8297
7939
8167
7833
8014
7810
7877
7856
7782
7940
7777
7984
7813
7971
7894
7921
8007
7864
8121
7846
8218
7871
8214
7958
8178
8093
8145
8236
8120
8346
8126
8380
8205
8386
8361
8401
8538
8404
8664
8419
8674
8425
8556
8425
8390
8425
8215
8446
8094
8401
8004
8241
7923
8038
7900
7858
7919
7769
7947
7754
7944
7825
7907
7932
7847
8041
7814
8120
7828
8168
7908
8145
8023
8086
8176
8048
8307
8053
8384
8134
8403
8237
8342
8349
8304
8499
8358
8602
8430
8612
8505
8520
8540
8355
8547
8207
8518
8132
8448
8112
8279
8078
8042
8025
7842
7973
7743
7945
7756
7896
7843
7839
7942
7791
8025
7785
8068
7835
8061
7959
8019
8105
7964
8213
7936
8282
7973
8321
8081
8294
8214
8238
8336
8224
8450
8295
8519
8417
8523
8556
8462
8639
8360
8617
8263
8558
8242
8457
8253
8265
8245
8047
8181
7876
8081
7784
7974
7789
7874
7869
7818
7971
7793
8006
7804
7989
7888
7959
8025
7905
8138
7872
8242
7909
8283
7996
8259
8131
8215
8256
8174
8365
8162
8417
8274
8457
8431
8461
8577
8446
8670
8400
8653
8347
8533
8337
8381
8378
8215
8385
8056
8312
7911
8138
7833
7965
7833
7823
7870
7731
7932
7755
7952
7817
7921
7929
7865
8055
7839
8167
7872
8254
7956
8213
8020
8136
8161
8109
8309
8094
8376
8130
8380
8229
8367
8406
8380
8564
8390
8656
8433
8641
8459
8503
8473
8324
8489
8189
8476
8082
8397
8014
8196
7957
7982
7926
7794
7917
7725
7937
7762
7916
7855
7864
7957
7810
8063
7804
8116
7849
8124
7959
8094
8100
8030
8228
8005
8333
8038
8372
8129
8345
8239
8283
8381
8301
8530
8369
8594
8460
8570
8556
8476
8583
8320
8575
8206
8514
8160
8400
8131
8187
8090
7955
8050
7805
7990
7737
7936
7780
7882
7895
7830
7981
7785
8034
7803
8046
7891
8019
8021
7965
8161
7924
8250
7932
8301
8007
8312
8140
8258
8262
8211
8379
8220
8470
8339
8525
8471
8511
8603
8437
8654
8339
8608
8264
8511
8256
8369
8274
8179
8269
7973
8176
7829
8058
7761
7924
7800
7833
7913
7819
8002
7801
7997
7829
7956
7930
7910
8082
7906
8222
7896
8263
7928
8240
8019
8207
8173
8167
8309
8154
8387
8169
8416
8308
8446
8480
8446
8617
8430
8669
8398
8608
8369
8471
8382
8304
8409
8152
8395
8010
8286
7890
8088
7848
7912
7856
7787
7906
7738
7946
7779
7942
7863
7889
7977
7846
8087
7822
8168
7874
8198
7969
8164
8093
8100
8242
8082
8364
8080
8377
8147
8363
8289
8373
8469
8395
8606
8422
8657
8461
8584
8493
8440
8518
8274
8511
8148
8476
8076
8345
8011
8118
7975
7912
7959
7770
7945
7736
7928
7796
7903
7895
7838
7995
7808
8079
7821
8103
7897
8084
8011
8023
8154
7978
8256
7974
8335
8035
8338
8155
8302
8278
8263
8427
8318
8563
8410
8589
8526
8555
8619
8429
8607
8284
8551
8180
8471
8173
8331
8180
8122
8125
7887
8051
7758
7969
7720
7908
7801
7845
7911
7799
7989
7779
8018
7827
8009
7937
7969
8089
7922
8203
7909
8281
7946
8301
8048
8272
8192
8225
8320
8199
8417
8256
8496
8380
8512
8523
8491
8645
8420
8658
8337
8581
8285
8455
8298
8292
8323
8120
8287
7924
8165
7812
8011
7761
7875
7821
7791
7914
7763
7969
7793
7962
7860
7916
7983
7898
8166
7895
8233
7889
8234
7972
8213
8110
8188
8261
8159
8381
8151
8426
8212
8437
8384
8466
8551
8439
8645
8417
8653
8410
8551
8400
8392
8427
8230
8448
8096
8403
7992
8239
7895
8044
7873
7868
7892
7753
7930
7746
7959
7815
7924
7906
7855
8007
7813
8106
7826
8155
7897
8138
8004
8090
8144
8029
8272
8035
8361
8081
8381
8186
8345
8330
8337
8475
8357
8584
8420
8606
8484
8515
8510
8352
8508
8198
8496
8135
8481
8151
8337
8081
8056
8002
7841
7974
7732
7957
7740
7932
7837
7873
7927
7811
8023
7807
8069
7844
8073
7959
8046
8099
7978
8218
7950
8303
7987
8351
8082
8323
8205
8266
8329
8251
8465
8321
8552
8420
8558
8537
8487
8611
8370
8611
8268
8541
8215
8431
8214
8263
8223
8040
8151
7850
8066
7745
7967
7746
7884
7842
7832
7947
7800
7998
7804
8006
7874
7968
7994
7927
8136
7886
8222
7894
8278
7969
8256
8089
8207
8230
8178
8361
8177
8444
8278
8488
8430
8498
8575
8471
8658
8409
8645
8344
8536
8317
8384
8347
8222
8365
8047
8298
7892
8148
7824
7989
7821
7863
7896
7797
7967
7791
7984
7827
7947
7922
7896
8040
7863
8152
7862
8215
7908
8202
8019
8167
8172
8131
8290
8101
8387
8126
8409
8216
8401
8389
8413
8554
8417
8655
8439
8658
8454
8511
8447
8342
8462
8181
8462
8069
8386
7983
8195
7924
7990
7913
7826
7927
7739
7954
7767
7948
7843
7893
7948
7839
8048
7813
8120
7862
8138
7951
8107
8087
8035
8209
8005
8335
8041
8381
8101
8360
8212
8324
8384
8342
8533
8391
8607
8465
8588
8528
8473
8547
8316
8548
8182
8510
8141
8396
8117
8202
8068
7952
8016
7774
7967
7671
7909
7702
7862
7824
7822
7955
7823
8065
7860
8105
7953
8115
8076
8015
8161
7948
8262
7937
8320
8005
8326
8128
8284
8254
8233
8375
8237
8491
8342
8560
8467
8541
8584
8467
8630
8341
8598
8258
8512
8240
8377
8266
8194
8248
7966
8168
7814
8060
7753
7943
7772
7849
7870
7794
7955
7777
7984
7815
7969
7917
7929
8057
7893
8177
7882
8251
7913
8244
8012
8224
8168
8185
8294
8152
8382
8159
8435
8292
8475
8466
8466
8613
8450
8670
8401
8601
8351
8467
8369
8321
8407
8157
8387
8000
8284
7876
8107
7833
7940
7843
7813
7905
7763
7965
7792
7973
7858
7927
7967
7862
8073
7838
8151
7857
8187
7941
8168
8088
8114
8232
8079
8351
8086
8394
8129
8386
8254
8385
8435
8405
8579
8427
8646
8458
8604
8487
8450
8486
8272
8479
8128
8444
8052
8343
7990
8127
7951
7914
7938
7758
7940
7709
7946
7786
7943
7900
7877
7975
7822
8062
7823
8107
7902
8102
8016
8044
8144
7991
8264
7985
8348
8030
8359
8140
8335
8263
8289
8417
8318
8558
8396
8592
8499
8564
8592
8455
8602
8292
8550
8175
8492
8194
8375
8166
8115
8102
7900
8058
7756
7992
7714
7942
7794
7885
7901
7831
7990
7802
8048
7857
8035
7937
7979
8048
7924
8179
7900
8280
7942
8303
8031
8277
8172
8242
8325
8228
8443
8283
8538
8396
8544
8501
8512
8606
8424
8636
8317
8534
8226
8415
8253
8280
8300
8121
8277
7936
8197
7823
8061
7788
7928
7821
7815
7905
7785
7977
7791
7973
7852
7941
7978
7908
8106
7881
8232
7915
8264
7974
8228
8087
8177
8226
8140
8349
8127
8408
8181
8444
8339
8460
8496
8441
8622
8420
8643
8397
8549
8382
8403
8408
8243
8430
8095
8386
7965
8233
7865
8042
7841
7868
7867
7759
7924
7744
7966
7809
7956
7907
7907
8033
7876
8122
7857
8161
7875
8121
7972
8081
8121
8042
8289
8058
8385
8076
8396
8176
8385
8324
8377
8481
8391
8585
8422
8594
8435
8483
8438
8315
8435
8130
8415
8028
8344
7971
8179
7917
7956
7911
7780
7909
7674
7917
7693
7935
7819
7931
7961
7913
8115
7962
8260
8029
8265
8115
8219
8244
8156
8347
8070
8419
8089
8460
8163
8425
8247
8342
8362
8313
8497
8356
8595
8445
8623
8550
8529
8593
8380
8579
8257
8528
8188
8430
8184
8253
8169
8023
8121
7829
8044
7716
7966
7705
7883
7794
7821
7884
7766
7948
7769
7974
7821
7936
7926
7892
8058
7839
8135
7806
8154
7826
8132
7934
8094
8059
8031
8184
8005
8290
8100
8385
8293
8408
8466
8423
8586
8388
8629
8361
8562
8350
8446
8388
8293
8437
8207
8498
8139
8432
8044
8246
8013
8087
8058
7985
8107
7923
8100
7895
8006
7916
7915
8007
7851
8096
7813
8140
7834
8129
7901
8032
7974
7937
8067
7869
8118
7851
8114
7896
8107
8052
8124
8207
8107
8361
8202
8465
8279
8406
8360
8331
8504
8359
8727
8455
8856
8475
8724
8410
8527
8462
8434
8516
8288
8464
8240
8403
8209
8259
8224
8113
8241
7982
8241
7939
8198
7970
8121
8048
8023
8148
7939
8218
7888
8224
7914
8191
7996
8126
8128
8102
8280
8127
8362
8195
8349
8267
8261
8303
8140
8387
8109
8467
8119
8431
8155
8315
8181
8148
8190
7949
8138
7853
8097
7857
8034
7917
7946
7993
7867
8052
7830
8043
7858
8013
7951
7954
8056
7868
8153
7836
8191
7863
8186
7938
8118
8020
8027
8131
8003
8257
8076
8307
8160
8240
8190
8089
8203
7930
8160
7862
8146
7900
8130
8092
8151
8288
8143
8408
8109
8441
8149
8490
8339
8446
8371
8294
8396
8204
8373
8134
8292
8171
8192
8235
8058
8270
7957
8305
7972
8304
8002
8195
8072
8100
8166
8009
8218
7994
8272
8067
8286
8200
8260
8374
8279
8492
8263
8465
8219
8390
8285
8319
8421
8242
8473
8117
8429
8012
8269
7922
8063
7937
7925
7976
7865
8069
7877
8061
7908
8019
8032
7981
8155
7940
8231
7919
8227
7964
8179
8044
8102
8176
8049
8292
8025
8355
8081
8387
8239
8455
8487
8511
8623
8455
8613
8387
8522
8363
8352
8307
8138
8315
7965
8261
7851
8103
7736
7929
7719
7705
7694
7569
7783
7550
7850
7698
7931
7894
7982
8097
8040
8297
8042
8314
8071
8283
8157
8220
8293
8203
8486
8224
8558
8216
8535
8255
8463
8353
8390
8452
8337
8529
8342
8548
8396
8493
8443
8310
8368
8042
8235
7842
8109
7775
7975
7743
7732
7669
7495
7641
7384
7698
7426
7692
7564
7815
7874
7930
8119
8059
8362
8252
8534
8495
8624
8709
8639
8824
8519
8825
8436
8775
8436
8646
8435
8479
8475
8390
8552
8367
8602
8409
8589
8511
8543
8578
8409
8545
8246
8469
8161
8341
8133
8174
8160
7987
8092
7727
7970
7579
7881
7560
7728
7560
7615
7674
7587
7813
7635
7847
7723
7888
7894
7864
8013
7850
8190
7893
8253
7979
8302
8150
8291
8323
8281
8471
8240
8490
8245
8517
8355
8520
8485
8472
8596
8420
8615
8363
8525
8319
8369
8315
8184
8317
8009
8250
7804
8071
7681
7899
7632
7702
7677
7624
7789
7640
7885
7694
7871
7776
7852
7953
7873
8126
7898
8242
7982
8220
8006
8115
8097
8068
8319
8145
8496
8201
8520
8244
8505
8413
8520
8591
8530
8700
8510
8688
8500
8593
8527
8468
8551
8318
8572
8276
8625
8240
8405
8039
8069
7934
7786
7867
7625
7852
7572
7820
7623
7765
7702
7649
7740
7556
7781
7579
7842
7695
7880
7897
7892
8138
7998
8363
8045
8434
8122
8438
8249
8386
8352
8328
8508
8406
8676
8568
8831
8724
8786
8853
8683
8864
8599
8865
8501
8733
8481
8622
8551
8388
8399
8084
8299
7922
8145
7838
8038
7909
7970
7972
7859
7987
7791
7987
7804
7934
7878
7860
7980
7781
8069
7765
8125
7821
8165
7912
8040
7953
7955
8062
7894
8181
8024
8326
8139
8318
8358
8428
8614
8464
8684
8410
8631
8432
8566
8485
8403
8465
8177
8372
7962
8275
7912
8168
7885
7979
7921
7873
7961
7789
7976
7775
7948
7845
7896
7954
7862
8091
7845
8149
7843
8161
7929
8133
8084
8106
8234
8077
8360
8089
8410
8153
8415
8291
8394
8403
8318
8439
8226
8400
8166
8259
8131
8075
8120
7900
8143
7811
8125
7728
8022
7733
7899
7822
7951
8196
8104
8333
8099
8332
8103
8184
8089
8040
8144
7964
8242
7994
8280
8089
8288
8205
8207
8302
8148
8444
8139
8494
8181
8491
8291
8479
8430
8430
8557
8434
8621
8411
8545
8392
8382
8358
8178
8340
8039
8346
7977
8263
7961
8110
7904
7862
7884
7700
7916
7627
7897
7624
7856
7685
7771
7839
7853
8137
8007
8268
8100
8336
8239
8233
8264
8059
8253
7915
8259
7918
8266
7987
8238
8155
8224
8329
8227
8447
8290
8544
8420
8589
8613
8724
8903
8719
8926
8559
8751
8414
8545
8346
8293
8235
7965
8104
7716
7965
7584
7847
7580
7744
7679
7675
7778
7636
7858
7700
7908
7824
7950
8062
8039
8259
7963
8277
7945
8284
7978
8241
8103
8150
8176
8061
8261
8055
8385
8189
8501
8430
8558
8614
8551
8703
8451
8652
8396
8519
8314
8313
8296
8123
8302
7988
8295
7873
8147
7805
8007
7858
7925
7946
7846
8006
7824
8032
7862
8011
7970
7966
8085
7912
8157
7866
8167
7873
8099
7912
7985
8014
7915
8109
7854
8155
7867
8153
7966
8266
8295
8466
8684
8588
8757
8550
8720
8512
8531
8446
8271
8398
8124
8444
8082
8395
7984
8104
7798
7833
7869
7897
8212
8061
8342
8098
8316
8155
8223
8215
8100
8233
7998
8244
7990
8221
8067
8167
8185
8085
8278
8026
8364
8020
8389
8082
8353
8206
8326
8391
8349
8517
8335
8552
8370
8496
8400
8359
8408
8167
8366
8012
8274
7897
8075
7782
7810
7748
7623
7754
7513
7794
7475
7726
7463
7701
7709
7879
8050
8045
8366
8195
8386
8201
8277
8197
8095
8202
7926
8239
7966
8447
8219
8532
8306
8443
8404
8350
8486
8338
8623
8479
8762
8713
8827
8810
8675
8766
8498
8685
8349
8491
8199
8186
8059
7895
7959
7663
7913
7530
7843
7515
7805
7648
7776
7811
7783
7997
7903
8195
8098
8266
8150
8121
8201
7996
8228
7928
8255
7922
8194
7965
8139
8098
8037
8188
8003
8305
8040
8384
8199
8417
8329
8358
8411
8267
8443
8200
8407
8245
8404
8318
8205
8248
7956
8179
7793
8123
7801
8171
8038
8270
8239
8206
8305
8109
8300
8013
8138
7957
8030
8033
7932
8042
7770
7986
7655
7848
7574
7679
7617
7633
7842
7703
8039
7752
8085
7884
8342
8363
8715
8889
8929
9124
9041
9253
8999
9029
8877
8867
8882
8594
8759
8401
8651
8218
8413
8065
8150
7965
7887
7929
7716
7913
7622
7895
7637
7800
7663
7683
7745
7599
7806
7580
7825
7641
7834
7783
7833
8005
7867
8211
7971
8404
8157
8579
8369
8528
8460
8505
8633
8497
8701
8532
8782
8600
8659
8592
8450
8524
8245
8442
8089
8343
8044
8181
8000
7930
7953
7725
7929
7593
7919
7624
7910
7744
7909
7925
7899
8008
7834
8021
7835
7995
7897
7931
8003
7879
8108
7843
8207
7907
8269
7990
8204
8103
8132
8191
8035
8256
8061
8356
8140
8338
8235
8264
8352
8252
8566
8435
8716
8512
8675
8520
8554
8663
8465
8609
8162
8431
8021
8280
7908
8035
7908
7935
8006
7872
8040
7836
8049
7916
8007
8005
7952
8129
7929
8285
8020
8354
8064
8279
8162
8178
8199
8026
8237
7922
8186
7868
8134
7958
8118
8102
8121
8267
8082
8279
8143
8425
8324
8355
8391
8230
8431
8109
8388
7929
8203
7921
8136
7933
7964
8041
7970
8222
8027
8281
8100
8323
8234
8306
8380
8234
8446
8249
8503
8251
8424
8243
8253
8281
8137
8367
8069
8408
8040
8344
8045
8266
8165
8218
8318
8225
8435
8246
8436
8259
8329
8256
8175
8330
8098
8425
8110
8440
8145
8334
8062
8027
7978
7821
7945
7621
7850
7516
7777
7582
7748
7701
7678
7818
7680
7933
7789
8043
7948
8050
8126
8089
8371
8202
8622
8298
8636
8324
8557
8336
8417
8452
8403
8594
8413
8636
8461
8633
8513
8516
8538
8373
8530
8222
8448
8142
8334
8108
8127
8064
7872
7990
7656
7909
7551
7842
7504
7714
7595
7628
7681
7577
7791
7670
7982
7945
8181
8176
8128
8306
8115
8429
8082
8402
8056
8337
8126
8215
8225
8144
8332
8133
8436
8185
8473
8299
8446
8400
8365
8445
8262
8491
8311
8619
8524
8629
8543
8368
8513
8268
8561
8107
8361
7943
8164
7945
8047
7995
7910
8020
7784
7903
7628
7798
7677
7707
7791
7650
7836
7563
7842
7561
7854
7663
7848
7957
8028
8381
8284
8640
8385
8739
8458
8713
8621
8761
8891
8901
9093
8873
8968
8696
8712
8601
8495
8558
8290
8508
8093
8361
7931
8139
7823
7906
7812
7726
7855
7646
7903
7651
7914
7724
7855
7821
7800
7924
7773
8012
7798
8039
7920
8089
8030
7948
8130
7931
8292
7977
8365
8046
8347
8161
8345
8361
8364
8501
8327
8540
8338
8488
8335
8331
8344
8161
8300
7974
8289
7997
8345
8106
8215
8154
8123
8229
7931
8143
7832
8145
7891
8118
8000
8074
8063
7949
8089
7901
8111
7943
8069
7995
7963
8063
7869
8150
7853
8245
7912
8222
7984
8169
8095
8106
8235
8097
8391
8204
8462
8319
8470
8394
8296
8357
8123
8371
8199
8509
8360
8583
8530
8445
8480
8173
8378
8004
8328
7996
8310
8014
8096
8003
7941
8026
7836
8012
7804
7960
7874
7959
8033
7950
8161
7876
8203
7913
8266
8083
8275
8185
8181
8276
8128
8465
8292
8663
8413
8621
8489
8577
8578
8451
8555
8308
8461
8218
8308
8166
8135
8177
7972
8201
7843
8115
7706
7977
7638
7757
7660
7641
7697
7557
7786
7575
7850
7706
7838
7793
7812
8010
7956
8332
8180
8561
8388
8551
8462
8485
8567
8385
8634
8278
8579
8254
8571
8395
8584
8549
8567
8718
8562
8744
8504
8619
8456
8464
8457
8280
8439
8110
8395
7993
8235
7895
8019
7830
7799
7846
7667
7884
7618
7929
7670
7893
7727
7814
7855
7776
7943
7764
8004
7827
8025
7962
8010
8077
7864
8073
7765
8127
7829
8207
7947
8195
8102
8156
8226
8091
8340
8294
8697
8645
8864
8839
8777
8854
8580
8728
8354
8525
8211
8324
8077
7988
7988
7774
7979
7709
8062
7757
8028
7808
7991
7970
7996
8081
7923
8112
7935
8115
7988
8037
8033
7933
8144
7876
8185
7877
8232
7960
8224
8115
8198
8275
8177
8419
8223
8562
8365
8598
8465
8533
8523
8409
8539
8302
8532
8329
8549
8451
8451
8447
8264
8428
8043
8284
7816
8075
7737
7952
7802
7877
7921
7813
7978
7788
7996
7827
7971
7943
7930
8038
7853
8104
7796
8075
7832
8084
7961
8071
8149
8048
8279
8031
8379
8110
8465
8280
8485
8445
8515
8590
8395
8500
8276
8467
8293
8340
8329
8244
8416
8103
8390
8008
8355
8037
8258
8017
8096
8116
7989
8152
7925
8177
7927
8103
7947
8012
8028
7953
8116
7912
8160
7934
8158
8007
8098
8135
8044
8275
8023
8374
8027
8399
8126
8417
8290
8406
8435
8354
8536
8344
8522
8320
8407
8317
8273
8388
8167
8362
7991
8271
7924
8119
7901
7995
7976
7885
8063
7834
8100
7796
8058
7810
7982
7900
7928
8012
7894
8096
7918
8124
7999
8124
8131
8056
8218
7968
8295
7975
8352
8023
8324
8120
8241
8227
8176
8340
8152
8416
8224
8406
8239
8284
8246
8093
8232
8007
8294
8094
8373
8169
8221
8173
8091
8295
8130
8514
8176
8508
8179
8420
8197
8250
8222
8101
8225
8022
8227
8013
8144
8062
8061
8173
7991
8243
7943
8304
8003
8298
8106
8253
8238
8206
8357
8152
8452
8217
8540
8338
8546
8453
8468
8531
8371
8518
8286
8463
8250
8337
8243
8142
8215
7915
8135
7727
8014
7640
7916
7675
7812
7772
7762
7893
7730
7954
7760
7971
7862
7970
7998
7919
8091
7873
8143
7899
8183
7989
8166
8144
8119
8275
8076
8392
8086
8467
8202
8511
8373
8498
8520
8469
8597
8423
8603
8393
8485
8359
8325
8386
8192
8403
8035
8295
7878
8127
7820
7950
7841
7819
7926
7741
8002
7747
8018
7800
7985
7901
7926
8004
7888
8098
7898
8144
7963
8127
8087
8083
8229
8047
8358
8039
8427
8089
8413
8182
8380
8356
8412
8570
8450
8645
8432
8637
8521
8550
8439
8269
8416
8160
8410
8057
8282
7950
8062
7930
7911
8026
7832
8064
7758
8065
7778
8031
7842
7995
8005
7960
8074
7908
8127
7963
8146
8066
8099
8160
7970
8189
7900
8264
7953
8311
8051
8276
8181
8241
8375
8290
8611
8522
8904
8652
8780
8655
8626
8606
8390
8512
8226
8434
8200
8349
8223
8195
8225
7973
8158
7774
8048
7657
7948
7660
7857
7748
7764
7852
7711
7898
7697
7919
7846
7979
7968
7893
8041
7828
8154
7871
8179
7953
8237
8194
8236
8306
8164
8439
8246
8665
8480
8771
8523
8646
8576
8495
8579
8371
8536
8350
8561
8484
8509
8492
8264
8398
8002
8261
7835
8122
7827
8044
7891
7909
7936
7780
7950
7712
7951
7759
7943
7869
7929
8016
7905
8123
7916
8199
8000
8246
8163
8218
8266
8123
8356
8064
8414
8096
8469
8245
8498
8422
8478
8567
8441
8608
8392
8537
8349
8409
8360
8250
8374
8097
8341
7948
8196
7838
8013
7808
7831
7840
7718
7941
7707
8001
7737
7990
7799
7931
7894
7868
8003
7850
8074
7902
8123
8014
8106
8155
8077
8327
8066
8427
8069
8428
8107
8382
8239
8370
8430
8381
8573
8410
8633
8434
8572
8423
8406
8421
8249
8426
8140
8394
8084
8255
8030
8040
8005
7850
8015
7707
8008
7667
7995
7727
7953
7837
7888
7935
7840
8025
7878
8103
7971
8077
8059
8022
8214
8030
8378
8080
8426
8114
8389
8212
8308
8324
8262
8485
8307
8618
8375
8663
8479
8608
8547
8474
8544
8330
8505
8242
8424
8229
8262
8208
8031
8156
7827
8092
7698
8017
7685
7950
7763
7882
7887
7828
7983
7815
8043
7858
8041
7972
8023
8097
7966
8188
7948
8257
7995
8270
8119
8239
8255
8191
8392
8154
8491
8210
8575
8349
8590
8487
8559
8595
8471
8592
8364
8510
8309
8388
8312
8240
8341
8057
8284
7875
8145
7771
8001
7757
7879
7838
7782
7953
7749
8016
7778
8018
7840
7979
7941
7933
8064
7914
8144
7932
8175
8018
8145
8151
8115
8299
8081
8433
8101
8476
8185
8514
8357
8508
8510
8489
8654
8464
8658
8422
8539
8398
8386
8405
8227
8406
8095
8370
7996
8185
7899
7973
7889
7803
7943
7727
8015
7738
8054
7805
8025
7885
7948
7974
7881
8058
7890
8098
7950
8095
8056
8056
8197
8017
8332
8013
8393
8076
8406
8193
8392
8365
8374
8511
8357
8607
8406
8622
8444
8538
8463
8393
8479
8282
8475
8190
8377
8119
8185
8065
7952
8023
7758
8013
7648
7995
7674
7984
7770
7926
7891
7862
7986
7839
8046
7876
8062
7970
8024
8088
7981
8210
7968
8307
8007
8332
8108
8296
8229
8238
8380
8231
8519
8290
8614
8372
8622
8480
8542
8535
8405
8523
8296
8462
8233
8367
8243
8196
8225
7960
8163
7781
8072
7680
7984
7718
7930
7865
7893
7964
7815
8008
7799
8023
7864
8018
8002
7985
8102
7927
8161
7925
8215
8011
8216
8153
8183
8301
8134
8414
8127
8531
8279
8613
8408
8562
8530
8517
8618
8448
8591
8370
8492
8334
8354
8356
8198
8365
8037
8290
7877
8107
7774
7930
7789
7811
7895
7759
7999
7746
8031
7780
8008
7877
7982
8024
7963
8122
7934
8167
7970
8166
8078
8132
8230
8095
8364
8072
8438
8095
8457
8205
8459
8388
8463
8533
8443
8638
8433
8615
8398
8488
8400
8335
8417
8205
8409
8086
8316
7981
8121
7926
7912
7928
7742
7962
7670
8004
7702
8010
7783
7956
7888
7896
8004
7877
8086
7921
8107
7998
8081
8124
8036
8255
8017
8375
8054
8417
8134
8376
8244
8341
8425
8351
8581
8368
8658
8445
8647
8486
8515
8491
8365
8485
8251
8449
8182
8330
8146
8119
8089
7884
8054
7722
8027
7650
8000
7714
7968
7835
7904
7936
7837
8017
7831
8050
7894
8041
8001
7998
8116
7962
8242
7972
8295
8029
8292
8147
8248
8308
8221
8457
8216
8561
8301
8617
8418
8635
8543
8538
8582
8412
8539
8297
8439
8262
8312
8257
8096
8208
7897
8152
7777
8084
7761
8010
7813
7890
7897
7799
7974
7768
8007
7793
8015
7883
7973
8010
7943
8128
7938
8213
7990
8226
8101
8200
8228
8147
8369
8124
8466
8145
8526
8264
8551
8430
8526
8576
8484
8629
8414
8570
8346
8435
8339
8278
8358
8121
8329
7964
8202
7841
8045
7806
7875
7835
7757
7939
7720
8017
7738
8021
7798
7985
7908
7940
8036
7924
8121
7948
8171
8018
8140
8129
8089
8272
8050
8386
8058
8428
8113
8429
8254
8434
8460
8448
8617
8466
8676
8439
8590
8397
8439
8415
8308
8437
8176
8396
8083
8250
7993
8032
7961
7859
8000
7731
8011
7654
8014
7734
8004
7845
7942
7948
7888
8041
7882
8098
7941
8087
8039
8047
8165
8008
8286
8006
8358
8056
8365
8162
8314
8297
8282
8477
8317
8606
8362
8668
8443
8618
8494
8469
8500
8319
8473
8225
8417
8210
8260
8164
8032
8113
7823
8066
7696
8023
7677
7970
7749
7913
7869
7842
7973
7813
8031
7841
8059
7938
8038
8067
7998
8182
7975
8270
8002
8289
8105
8265
8239
8209
8368
8163
8485
8214
8587
8330
8607
8472
8569
8552
8466
8560
8350
8500
8297
8413
8297
8261
8305
8086
8264
7889
8135
7742
7990
7719
7881
7797
7792
7915
7743
8006
7764
8031
7835
8040
7968
8004
8074
7956
8160
7968
8202
8010
8173
8136
8137
8282
8105
8406
8090
8465
8147
8529
8355
8595
8543
8561
8641
8453
8627
8380
8531
8362
8411
8375
8263
8396
8114
8343
7972
8175
7876
7990
7848
7814
7908
7710
7984
7690
8027
7746
8002
7830
7957
7947
7911
8062
7913
8119
7959
8140
8057
8097
8185
8049
8322
8044
8411
8076
8423
8170
8402
8321
8390
8500
8383
8639
8427
8662
8419
8548
8425
8411
8444
8278
8444
8164
8371
8083
8181
8015
7954
7995
7771
7992
7658
8006
7672
8004
7760
7962
7885
7897
7986
7862
8058
7889
8098
7984
8081
8090
8035
8222
8007
8321
8035
8362
8117
8329
8233
8265
8377
8249
8526
8297
8618
8358
8646
8457
8567
8500
8419
8502
8293
8454
8224
8373
8230
8211
8195
7975
8141
7792
8075
7695
8010
7715
7937
7814
7876
7941
7818
8015
7800
8042
7855
8035
7962
8000
8089
7975
8201
7977
8251
8034
8258
8166
8217
8295
8165
8420
8156
8524
8237
8593
8365
8579
8506
8528
8586
8427
8566
8338
8483
8302
8361
8305
8199
8318
8012
8220
7833
8086
7748
7936
7778
7829
7882
7770
7985
7747
8045
7770
8033
7864
8029
8021
7983
8102
7950
8167
7970
8165
8045
8134
8194
8096
8345
8074
8423
8079
8458
8194
8493
8400
8515
8552
8479
8653
8432
8627
8387
8506
8378
8368
8399
8228
8403
8105
8316
7968
8115
7906
7926
7925
7774
7986
7713
8058
7761
8086
7823
8012
7888
7933
7989
7893
8074
7895
8096
7966
8076
8075
8034
8218
8019
8347
8040
8391
8085
8373
8210
8340
8403
8359
8574
8370
8665
8407
8646
8444
8516
8440
8358
8438
8221
8417
8162
8320
8111
8110
8049
7886
8025
7710
8007
7659
8032
7736
8003
7822
7913
7913
7845
8006
7835
8061
7886
8064
7993
8034
8116
7999
8247
8007
8338
8085
8368
8201
8292
8292
8211
8429
8214
8565
8302
8630
8403
8624
8498
8533
8525
8377
8503
8276
8431
8239
8314
8235
8127
8193
7910
8124
7757
8046
7695
7958
7753
7885
7877
7817
7986
7770
8035
7791
8039
7874
8017
7999
7982
8116
7956
8205
7997
8243
8087
8219
8231
8179
8378
8148
8491
8170
8578
8321
8633
8450
8601
8579
8513
8629
8415
8570
8338
8456
8325
8324
8338
8142
8307
7969
8206
7856
8059
7792
7892
7839
7777
7940
7723
8016
7734
8042
7788
8002
7873
7952
8019
7933
8108
7947
8165
8003
8148
8119
8099
8246
8065
8383
8072
8436
8114
8453
8260
8468
8456
8456
8595
8438
8657
8415
8599
8390
8461
8386
8318
8403
8175
8378
8064
8235
7972
8034
7936
7832
7929
7688
7983
7648
8024
7710
8018
7813
7945
7918
7888
8017
7874
8084
7920
8097
8017
8076
8144
8018
8262
8018
8363
8069
8388
8160
8335
8304
8323
8489
8360
8655
8390
8688
8407
8598
8422
8447
8434
8308
8436
8210
8402
8173
8281
8167
8103
8129
7876
8082
7728
8031
7659
7969
7736
7957
7901
7910
8000
7847
8056
7841
8070
7907
8055
8025
8011
8161
7979
8249
8007
8302
8094
8284
8231
8234
8364
8197
8500
8234
8625
8336
8654
8461
8606
8534
8487
8550
8363
8503
8272
8393
8242
8249
8247
8060
8198
7858
8111
7739
8014
7721
7920
7802
7837
7933
7780
8018
7777
8057
7825
8043
7916
8008
8050
7975
8150
7957
8198
8013
8205
8127
8173
8275
8130
8396
8090
8471
8139
8524
8302
8544
8451
8519
8587
8460
8625
8385
8564
8363
8463
8377
8294
8348
8093
8289
7930
8138
7841
7989
7825
7827
7890
7725
7982
7700
8042
7740
8033
7818
7995
7934
7939
8045
7928
8124
7957
8156
8035
8120
8164
8078
8313
8059
8397
8079
8433
8163
8429
8323
8433
8518
8417
8661
8427
8677
8421
8588
8402
8440
8418
8295
8414
8169
8354
8066
8178
7985
7977
7973
7785
7993
7685
8016
7668
8037
7761
7998
7868
7928
7979
7878
8058
7891
8111
7954
8091
8058
8049
8188
8012
8299
8032
8367
8104
8352
8221
8297
8371
8289
8540
8330
8651
8381
8667
8437
8588
8467
8436
8474
8298
8449
8217
8369
8179
8196
8127
7964
8082
7779
8039
7663
7999
7688
7957
7792
7891
7915
7835
8009
7806
8069
7853
8074
7953
8047
8071
8005
8192
7990
8268
8053
8289
8168
8251
8287
8191
8418
8175
8536
8240
8616
8349
8620
8472
8546
8552
8421
8548
8324
8487
8287
8386
8278
8214
8268
8004
8192
7836
8083
7746
7967
7764
7867
7869
7786
7985
7755
8045
7766
8056
7839
8021
7950
7972
8066
7944
8138
7962
8183
8035
8164
8185
8134
8331
8104
8457
8129
8509
8196
8501
8337
8480
8494
8463
8602
8417
8638
8391
8542
8352
8391
8378
8246
8372
8091
8302
7974
8143
7899
7943
7894
7780
7961
7718
8042
7728
8071
7775
8030
7866
7958
7975
7918
8078
7918
8129
7962
8112
8069
8080
8211
8059
8353
8074
8422
8112
8413
8221
8401
8400
8389
8558
8374
8666
8383
8649
8400
8537
8413
8383
8416
8252
8400
8136
8307
8061
8116
8005
7901
7999
7728
8003
7653
8013
7697
7999
7788
7934
7898
7871
7999
7844
8072
7882
8097
7981
8069
8090
8018
8211
8004
8312
8063
8344
8154
8301
8268
8241
8422
8229
8566
8292
8643
8399
8653
8476
8550
8498
8379
8475
8275
8431
8220
8328
8208
8149
8165
7931
8133
7800
8083
7717
7991
7738
7915
7861
7829
7970
7783
8046
7805
8077
7874
8066
7997
8025
8116
7991
8210
8003
8243
8074
8244
8219
8206
8348
8150
8457
8165
8564
8274
8618
8404
8609
8543
8520
8589
8392
8552
8304
8455
8286
8337
8293
8162
8286
7967
8169
7834
8045
7775
7913
7823
7804
7937
7756
8028
7734
8062
7779
8042
7876
7997
7999
7966
8112
7961
8163
8010
8170
8096
8151
8254
8116
8376
8085
8453
8121
8485
8267
8509
8449
8472
8605
8440
8654
8374
8586
8332
8455
8326
8312
8354
8172
8338
8044
8211
7936
8040
7916
7875
7946
7737
7996
7692
8049
7716
8036
7785
7982
7901
7923
8023
7898
8112
7941
8143
8012
8130
8156
8094
8293
8059
8370
8074
8399
8163
8384
8297
8353
8487
8375
8637
8384
8691
8401
8629
8408
8483
8420
8332
8425
8228
8391
8164
8292
8112
8061
8054
7850
8021
7684
8001
7635
7982
7724
7958
7843
7884
7949
7831
8039
7831
8077
7902
8078
8003
8038
8125
8005
8241
8018
8302
8084
8291
8203
8242
8328
8206
8492
8234
8627
8322
8660
8420
8617
8503
8481
8508
8341
8479
8252
8409
8220
8268
8212
8059
8157
7861
8089
7730
8014
7714
7940
7809
7878
7938
7811
8026
7784
8076
7810
8065
7893
8036
8028
7998
8133
7974
8200
8006
8212
8110
8184
8245
8135
8373
8095
8474
8156
8554
8310
8601
8477
8584
8616
8493
8620
8376
8563
8333
8467
8344
8317
8340
8131
8275
7941
8148
7848
8012
7829
7868
7903
7767
8009
7745
8081
7767
8092
7832
8026
7915
7962
8032
7935
8122
7954
8165
8029
8145
8152
8112
8297
8072
8391
8077
8432
8158
8443
8315
8458
8501
8432
8647
8408
8667
8371
8574
8356
8438
8367
8288
8377
8148
8329
8029
8161
7952
7964
7931
7787
7961
7686
8007
7668
8031
7730
8001
7834
7940
7958
7887
8056
7884
8118
7946
8116
8033
8075
8162
8042
8290
8049
8365
8095
8359
8200
8316
8364
8303
8546
8343
8657
8371
8695
8418
8598
8439
8444
8443
8298
8427
8211
8366
8159
8200
8095
7966
8054
7786
8025
7671
8015
7694
7977
7782
7920
7913
7853
8021
7825
8081
7838
8088
7920
8059
8035
8008
8148
7987
8243
8030
8279
8150
8274
8284
8209
8410
8186
8546
8252
8628
8339
8651
8455
8576
8540
8449
8549
8346
8518
8298
8421
8282
8269
8261
8028
8172
7843
8087
7756
7992
7774
7902
7879
7829
7993
7770
8052
7767
8068
7816
8045
7927
8008
8058
7969
8144
7980
8201
8055
8218
8202
8185
8335
8129
8419
8111
8505
8217
8555
8378
8542
8515
8474
8585
8380
8578
8314
8511
8301
8381
8313
8230
8322
8063
8240
7915
8084
7850
7926
7851
7783
7939
7719
8034
7710
8058
7737
8032
7841
7967
7948
7922
8064
7920
8132
7961
8145
8061
8119
8201
8083
8336
8075
8399
8100
8410
8213
8426
8420
8427
8574
8410
8690
8392
8667
8368
8533
8364
8373
8364
8227
8365
8122
8291
8016
8076
7957
7893
7962
7751
8008
7682
8047
7736
8070
7836
8003
7919
7912
8031
7896
8132
7913
8127
7966
8104
8083
8066
8212
8047
8326
8077
8355
8150
8320
8266
8278
8446
8281
8605
8322
8683
8389
8680
8441
8542
8455
8391
8452
8263
8423
8196
8323
8165
8130
8106
7911
8063
7746
8020
7677
7983
7723
7932
7837
7866
7965
7801
8050
7805
8093
7856
8088
7970
8053
8097
8004
8202
8006
8264
8074
8266
8204
8223
8342
8179
8465
8191
8590
8284
8639
8389
8613
8504
8515
8564
8389
8545
8293
8464
8250
8348
8257
8163
8220
7950
8117
7800
8022
7753
7931
7819
7829
7938
7777
8047
7760
8077
7782
8071
7870
8031
7983
7980
8092
7962
8161
7989
8184
8080
8167
8233
8139
8374
8125
8465
8148
8511
8261
8518
8423
8493
8591
8439
8656
8381
8604
8319
8482
8314
8347
8343
8204
8324
8038
8191
7902
8017
7864
7855
7892
7728
7971
7682
8040
7704
8044
7786
8027
7918
7967
8029
7929
8117
7937
8150
7999
8146
8114
8102
8257
8079
8365
8084
8405
8152
8384
8290
8385
8485
8381
8632
8385
8701
8388
8634
8378
8495
8377
8340
8402
8218
8378
8130
8253
8052
8048
8011
7857
8002
7702
8015
7662
8018
7730
7982
7829
7903
7947
7854
8053
7841
8106
7898
8119
7999
8079
8120
8043
8231
8043
8317
8095
8330
8204
8269
8332
8237
8504
8258
8635
8322
8696
8413
8641
8471
8493
8482
8341
8464
8240
8408
8201
8289
8180
8071
8132
7870
8073
7734
7996
7704
7948
7789
7893
7919
7814
8013
7766
8081
7799
8091
7891
8070
8009
8024
8127
8003
8224
8023
8252
8134
8240
8268
8192
8391
8163
8507
8201
8595
8329
8618
8453
8563
8551
8462
8581
8341
8538
8280
8438
8261
8292
8259
8105
8213
7930
8116
7817
7980
7783
7862
7868
7774
7982
7726
8051
7721
8064
7796
8046
7910
8001
8036
7978
8142
7970
8184
8020
8173
8144
8147
8269
8095
8377
8080
8431
8160
8480
8342
8507
8515
8471
8640
8401
8658
8354
8588
8329
8455
8343
8319
8358
8157
8300
8007
8132
7912
7961
7890
7792
7934
7698
8004
7680
8049
7743
8042
7842
7975
7944
7909
8065
7909
8143
7944
8133
8022
8132
8169
8091
8287
8053
8349
8095
8373
8172
8313
8320
8318
8531
8340
8660
8371
8688
8396
8625
8434
8488
8439
8326
8438
8225
8364
8126
8195
8051
7984
8015
7805
8024
7703
8020
7696
8011
7790
7961
7917
7893
8026
7842
8089
7852
8132
7933
8104
8034
8056
8157
8029
8257
8054
8308
8142
8282
8254
8231
8396
8213
8545
8268
8646
8336
8672
8436
8589
8494
8433
8501
8308
8470
8235
8394
8203
8231
8173
8003
8103
7817
8046
7726
7969
7733
7900
7857
7833
7973
7780
8061
7770
8096
7818
8083
7927
8049
8055
8007
8165
7993
8208
8046
8229
8170
8203
8300
8145
8409
8114
8503
8211
8574
8357
8572
8510
8500
8601
8402
8583
8294
8506
8249
8393
8271
8248
8278
8063
8197
7901
8079
7841
7946
7851
7824
7938
7750
8028
7716
8074
7750
8068
7835
8024
7953
7966
8074
7954
8153
7974
8185
8055
8167
8203
8137
8342
8109
8422
8130
8450
8224
8461
8407
8458
8573
8437
8688
8393
8667
8343
8557
8337
8409
8356
8260
8356
8128
8277
8002
8093
7939
7900
7935
7747
7977
7681
8027
7695
8033
7762
7977
7880
7911
7992
7880
8091
7884
8140
7952
8124
8057
8078
8185
8056
8313
8078
8354
8147
8349
8260
8305
8432
8304
8595
8322
8689
8370
8685
8410
8561
8424
8392
8432
8270
8422
8190
8338
8125
8124
8047
7906
8022
7745
8001
7683
7988
7730
7968
7837
7890
7951
7814
8046
7802
8103
7851
8115
7949
8083
8083
8055
8205
8044
8281
8085
8282
8181
8232
8290
8173
8432
8184
8571
8276
8641
8386
8634
8481
8529
8540
8392
8536
8300
8492
8247
8363
8230
8176
8169
7946
8096
7799
8016
7748
7947
7838
7898
7944
7796
8016
7732
8066
7763
8082
7836
8050
7966
8008
8093
7985
8171
8001
8209
8083
8202
8218
8163
8348
8114
8437
8134
8512
8267
8559
8428
8530
8584
8459
8653
8372
8596
8294
8495
8288
8376
8316
8212
8292
8023
8156
7889
8023
7841
7864
7863
7738
7954
7709
8046
7718
8066
7760
8018
7865
7958
7994
7929
8121
7946
8172
8004
8178
8099
8150
8260
8156
8413
8152
8444
8172
8419
8292
8421
8485
8417
8650
8420
8721
8391
8662
8358
8514
8359
8362
8377
8224
8371
8121
8254
8019
8052
7977
7863
7971
7732
8031
7688
8026
7722
7997
7815
7942
7952
7887
8060
7856
8123
7896
8137
7976
8110
8093
8059
8213
8049
8311
8091
8331
8181
8282
8310
8258
8495
8280
8635
8319
8700
8379
8643
8427
8495
8450
8337
8444
8223
8403
8170
8284
8129
8065
8059
7856
8033
7729
7993
7695
7958
7777
7904
7897
7826
8000
7775
8075
7792
8116
7880
8095
7986
8044
8101
8009
8194
8018
8247
8108
8262
8266
8233
8380
8167
8489
8209
8599
8314
8621
8440
8580
8533
8456
8542
8307
8499
8234
8419
8206
8290
8220
8106
8170
7907
8071
7787
7963
7755
7873
7850
7794
7965
7740
8066
7766
8133
7847
8130
7924
8048
8030
7995
8148
7979
8210
8026
8216
8153
8196
8281
8155
8402
8121
8456
8183
8511
8342
8535
8514
8497
8638
8425
8678
8343
8585
8292
8461
8288
8319
8316
8153
8282
8003
8127
7897
7973
7878
7818
7924
7710
7995
7684
8049
7725
8035
7800
7993
7943
7934
8057
7917
8172
7961
8200
8031
8155
8141
8107
8274
8102
8379
8124
8395
8207
8389
8371
8387
8562
8381
8694
8380
8711
8379
8605
8365
8451
8374
8287
8387
8170
8336
8081
8178
7997
7960
7966
7787
7974
7680
7998
7687
8003
7762
7947
7874
7876
7997
7837
8097
7853
8155
7930
8161
8037
8103
8149
8052
8260
8074
8323
8153
8305
8246
8253
8398
8235
8561
8289
8656
8346
8682
8418
8597
8473
8433
8475
8289
8451
8192
8384
8166
8218
8122
7995
8066
7822
8019
7724
7982
7763
7951
7888
7891
7988
7789
8051
7759
8087
7795
8090
7898
8052
8015
7998
8121
7975
8172
8013
8215
8140
8217
8284
8177
8425
8186
8558
8275
8633
8393
8622
8532
8544
8623
8425
8606
8313
8535
8262
8426
8255
8268
8250
8073
8184
7907
8068
7815
7938
7834
7831
7909
7750
8016
7718
8063
7734
8065
7823
8041
7951
7995
8096
7982
8187
7978
8193
8041
8206
8209
8174
8305
8107
8394
8121
8444
8220
8466
8404
8469
8559
8410
8649
8362
8640
8299
8543
8304
8415
8331
8264
8330
8118
8260
7983
8087
7906
7909
7903
7762
7965
7679
8008
7679
8010
7732
7974
7857
7914
7968
7858
8072
7862
8136
7928
8157
8045
8131
8182
8101
8327
8129
8408
8209
8410
8320
8391
8484
8387
8657
8387
8763
8404
8730
8411
8576
8403
8403
8404
8250
8393
8141
8311
8072
8108
8006
7908
7978
7733
7964
7644
7956
7693
7943
7809
7899
7951
7865
8097
7856
8152
7871
8146
7934
8102
8044
8047
8158
8026
8251
8064
8257
8141
8222
8253
8168
8394
8178
8548
8254
8621
8352
8605
8437
8491
8454
8304
8437
8185
8401
8141
8324
8152
8162
8143
7975
8097
7837
8055
7794
7998
7846
7915
7956
7857
8071
7801
8131
7815
8149
7869
8125
7995
8097
8142
8049
8242
8077
8324
8185
8346
8333
8291
8412
8192
8466
8178
8540
8266
8570
8424
8551
8553
8457
8600
8320
8547
8213
8441
8173
8295
8179
8120
8158
7932
8062
7806
7955
7772
7858
7860
7775
7960
7711
8031
7720
8076
7792
8096
7941
8121
8152
8102
8258
8070
8317
8078
8270
8147
8212
8236
8118
8317
8094
8384
8129
8398
8253
8391
8410
8335
8543
8320
8624
8283
8563
8220
8411
8220
8269
8261
8126
8246
8016
8146
7938
8024
7946
7879
7955
7729
7982
7689
8029
7722
8021
7816
7984
8011
8005
8200
8030
8363
8111
8396
8164
8319
8218
8215
8316
8156
8383
8156
8385
8203
8307
8298
8274
8475
8277
8606
8305
8666
8339
8612
8381
8486
8393
8274
8338
8110
8292
8034
8194
7990
7976
7936
7785
7915
7630
7884
7601
7862
7668
7809
7775
7742
7909
7728
8082
7839
8222
8006
8309
8159
8251
8282
8245
8428
8275
8466
8293
8425
8351
8344
8448
8258
8528
8246
8593
8280
8583
8375
8521
8447
8385
8447
8208
8397
8098
8326
8063
8177
8044
7975
7998
7813
7997
7751
7961
7780
7955
7922
7907
8028
7812
8076
7753
8103
7793
8122
7932
8118
8064
8058
8198
8062
8301
8107
8304
8153
8202
8215
8131
8328
8072
8379
8099
8433
8238
8434
8380
8399
8514
8336
8554
8214
8493
8192
8434
8232
8318
8276
8198
8302
8040
8192
7977
8131
8012
7975
8010
7795
8010
7689
8013
7661
7976
7717
7891
7769
7761
7859
7732
7992
7796
8065
7890
8070
8033
8082
8220
8074
8328
8140
8458
8285
8477
8465
8574
8769
8682
9052
8826
9195
8818
9016
8658
8739
8554
8482
8511
8302
8414
8123
8214
7993
8010
7979
7858
8005
7772
8057
7745
8032
7770
7986
7857
7863
7904
7735
7958
7705
8018
7746
7993
7822
7938
7938
7894
8036
7874
8096
7920
8092
7995
8038
8151
8068
8395
8180
8571
8277
8607
8336
8536
8389
8428
8518
8436
8622
8386
8573
8331
8420
8263
8203
8207
7976
8128
7828
8071
7811
7969
7809
7809
7840
7678
7881
7556
7878
7547
7885
7637
7843
7752
7802
7933
7850
8096
8001
8294
8237
8368
8420
8427
8744
8594
8958
8687
9045
8744
8973
8812
8837
8832
8638
8751
8422
8627
8315
8494
8242
8283
8179
8034
8084
7829
7982
7712
7845
7685
7705
7733
7612
7834
7533
7881
7562
7943
7664
7918
7795
7897
7947
7861
8057
7893
8131
7970
8178
8155
8213
8360
8252
8520
8298
8587
8335
8568
8461
8521
8537
8393
8569
8270
8538
8149
8411
8096
8246
8078
8062
8069
7906
8026
7802
7977
7845
7976
8024
8003
8225
8022
8355
8015
8328
7984
8242
8047
8136
8132
8022
8192
7932
8184
7904
8117
7932
8027
8001
7948
8084
7897
8114
7903
8134
8028
8173
8233
8192
8458
8258
8624
8326
8748
8471
8701
8487
8574
8580
8530
8680
8444
8583
8310
8359
8167
8088
8084
7869
8051
7779
8066
7797
8043
7858
7950
7928
7842
8016
7795
8110
7839
8173
7932
8139
8022
8066
8106
7997
8192
8016
8223
8067
8179
8143
8111
8289
8108
8449
8153
8528
8243
8537
8318
8421
8342
8242
8360
8121
8362
8115
8390
8212
8236
8090
7962
8031
7810
8021
7768
7982
7837
8022
8053
8014
8213
8008
8334
7983
8342
8007
8272
8066
8176
8135
8056
8197
8007
8220
8026
8198
8112
8157
8254
8142
8419
8171
8521
8250
8546
8352
8521
8482
8444
8547
8280
8501
8122
8349
7977
8100
7928
7927
7928
7760
7856
7618
7819
7629
7757
7742
7752
7952
7862
8292
8050
8463
8192
8558
8329
8452
8364
8309
8391
8163
8346
8068
8273
8089
8212
8200
8177
8343
8144
8408
8169
8425
8222
8376
8325
8285
8435
8203
8475
8100
8383
7990
8217
7982
8122
8056
7961
8051
7877
8095
7978
8181
8087
8103
8129
7963
8175
7909
8251
7916
8204
7947
8124
8063
8067
8202
8065
8365
8100
8416
8145
8333
8161
8200
8239
8155
8355
8157
8398
8208
8367
8304
8315
8448
8279
8558
8269
8603
8242
8523
8197
8312
8171
8137
8192
8010
8193
7991
8199
7974
8066
8036
7965
8030
7766
7973
7717
8025
7844
8053
8001
7989
8097
7918
8182
7891
8275
7979
8282
8058
8207
8139
8078
8186
8041
8261
8049
8214
8090
8121
8146
8019
8293
8039
8385
8042
8384
8119
8326
8196
8176
8221
8071
8301
8028
8338
8082
8299
8181
8258
8281
8143
8301
8043
8258
8023
8182
8086
8140
8281
8153
8378
8037
8354
7960
8282
7992
8198
8069
8079
8138
7987
8170
7968
8201
8062
8217
8210
8197
8325
8098
8345
8055
8377
8164
8397
8294
8336
8385
8189
8315
7971
8252
7874
8066
7787
7918
7836
7843
7980
7876
8106
7964
8183
8105
8242
8331
8217
8461
8204
8486
8084
8401
8093
8358
8200
8230
8258
8159
8391
8205
8507
8288
8455
8288
8337
8356
8235
8408
8169
8422
8196
8414
8330
8428
8516
8400
8637
8320
8619
8217
8488
8124
8286
8088
8084
8067
7898
8009
7735
7838
7603
7700
7622
7570
7725
7589
7933
7761
8113
7860
8074
7930
8014
8059
7988
8225
7995
8314
8000
8270
8002
8161
8080
8093
8205
8071
8291
8063
8240
8096
8217
8275
8216
8471
8274
8636
8338
8680
8335
8526
8268
8309
8297
8175
8320
8058
8230
7948
8102
7937
7981
7984
7868
8022
7798
8069
7859
8091
7954
8048
8087
8002
8247
8000
8317
7931
8256
7960
8201
8043
8121
8160
8082
8282
8079
8310
8165
8303
8298
8299
8465
8294
8586
8338
8709
8417
8689
8481
8583
8531
8446
8629
8392
8615
8280
8519
8252
8362
8175
8035
8007
7794
7917
7657
7827
7639
7700
7681
7606
7770
7514
7830
7485
7847
7534
7869
7731
7896
7902
7836
7985
7827
8075
7956
8251
8220
8368
8491
8527
8806
8595
8859
8583
8834
8654
8735
8720
8640
8768
8450
8680
8300
8574
8227
8431
8237
8296
8276
8125
8180
7893
7997
7787
7903
7834
7818
7926
7742
8024
7730
8038
7709
7984
7773
7924
7910
7898
8084
7939
8225
7934
8190
7966
8101
8015
8022
8115
7988
8182
7984
8256
8121
8240
8219
8197
8365
8166
8490
8217
8638
8304
8530
8208
8274
8214
8248
8503
8492
8797
8563
8684
8462
8403
8267
8071
8203
7911
8165
7880
8134
7927
8053
7981
7943
8103
7894
8193
7888
8203
7902
8152
7989
8088
8100
8042
8195
8016
8245
8062
8228
8187
8216
8353
8215
8516
8252
8629
8329
8647
8397
8514
8408
8325
8405
8181
8379
8079
8292
8007
8091
7934
7864
7875
7640
7814
7550
7789
7639
7802
7709
7650
7741
7505
7793
7484
7884
7577
7925
7744
7949
7894
7900
8019
7855
8065
7942
8247
8276
8465
8557
8512
8779
8695
9186
8986
9244
8942
9057
8924
8863
8868
8570
8728
8361
8621
8301
8474
8221
8241
8130
7966
8032
7803
7966
7750
7880
7778
7783
7893
7726
7984
7690
8061
7757
8078
7816
8011
7903
7910
7998
7839
8033
7805
8056
7871
8035
7976
8002
8102
7974
8225
8028
8355
8212
8478
8465
8564
8726
8522
8780
8468
8815
8426
8646
8303
8418
8280
8226
8257
8013
8096
7814
7916
7710
7722
7672
7525
7687
7479
7816
7556
7907
7673
7929
7866
7904
7964
7856
8199
8076
8529
8361
8683
8565
8677
8581
8452
8534
8334
8524
8288
8406
8259
8289
8369
8214
8458
8174
8494
8136
8483
8186
8392
8246
8317
8435
8367
8555
8311
8455
8121
8189
8022
7944
7939
7721
7943
7745
8034
7819
8019
7902
7951
8083
7945
8198
7914
8270
7926
8228
7949
8117
8000
8019
8103
7984
8170
7994
8206
8077
8177
8212
8160
8368
8111
8385
8026
8371
8041
8252
8119
8178
8225
8060
8195
7882
8124
7857
8210
8203
8459
8591
8607
8686
8415
8532
8201
8270
8094
8111
8114
7952
8140
7850
8182
7817
8178
7911
8187
8068
8178
8222
8122
8300
8096
8337
8151
8327
8233
8223
8303
8132
8399
8163
8492
8256
8490
8379
8453
8477
8323
8490
8156
8420
8070
8387
8090
8256
8066
7987
7947
7749
7856
7597
7758
7592
7678
7680
7633
7823
7602
7969
7713
8073
7776
8067
7942
8105
8184
8132
8341
8147
8444
8210
8442
8252
8365
8338
8276
8460
8277
8466
8231
8479
8405
8549
8608
8532
8737
8452
8757
8349
8597
8207
8425
8204
8264
8183
7986
8042
7772
7915
7678
7835
7734
7712
7797
7650
7855
7542
7814
7635
8044
7947
8102
8183
8195
8420
8179
8514
8194
8450
8104
8225
8057
8081
8116
7989
8110
7891
8075
7963
8217
8400
8480
8699
8476
8818
8538
8944
8662
8948
8739
8832
8763
8590
8621
8304
8457
8119
8250
7973
7988
7899
7785
7881
7662
7888
7636
7901
7769
7901
7893
7811
7989
7745
8055
7728
8078
7780
8071
7889
7998
8000
7948
8095
7936
8157
7999
8178
8112
8164
8295
8199
8492
8288
8619
8343
8623
8411
8505
8419
8326
8431
8146
8372
8042
8338
8052
8219
8024
7981
7950
7792
7928
7724
7934
7811
7959
7900
7857
7999
7819
8143
7860
8205
7871
8195
7960
8108
8056
8071
8250
8137
8437
8311
8570
8392
8473
8426
8354
8475
8294
8546
8319
8581
8413
8561
8535
8478
8605
8309
8505
8079
8358
7959
8192
7905
7950
7867
7792
7838
7575
7702
7444
7594
7581
7734
7870
7731
7964
7708
8030
7776
8202
8003
8153
8081
8093
8298
8287
8656
8444
8765
8530
8740
8577
8585
8600
8479
8638
8408
8581
8376
8535
8486
8473
8578
8409
8678
8366
8704
8319
8547
8198
8281
8115
8040
8073
7876
8009
7690
7828
7590
7663
7599
7531
7725
7563
7887
7685
8032
7901
8170
8167
8192
8323
8151
8381
7995
8263
7868
8106
7901
8050
8003
7961
8061
7904
8103
7953
8167
8104
8220
8390
8372
8675
8460
8863
8550
8898
8615
8751
8586
8537
8576
8362
8494
8136
8327
7973
8082
7877
7873
7880
7745
7909
7670
7907
7705
7860
7773
7822
7968
7891
8273
8016
8357
7950
8210
7894
8101
8017
8052
8139
8016
8254
8075
8330
8175
8296
8258
8208
8376
8225
8555
8336
8653
8452
8676
8563
8507
8503
8264
8426
8039
8302
7913
8134
7858
7917
7776
7665
7722
7568
7791
7669
7966
7985
8174
8320
8180
8358
8036
8351
8007
8377
8091
8300
8136
8139
8173
8024
8229
7970
8263
8040
8285
8162
8227
8269
8170
8369
8167
8481
8323
8543
8440
8519
8588
8411
8615
8249
8547
8154
8458
8150
8359
8219
8236
8239
8019
8058
7698
7806
7569
7605
7519
7434
7549
7359
7642
7370
7684
7452
7724
7699
7892
8111
8178
8529
8256
8566
8257
8463
8169
8350
8396
8456
8579
8433
8607
8395
8647
8596
8734
8831
8730
8964
8692
8977
8567
8824
8450
8621
8387
8394
8382
8229
8371
8067
8230
7935
8053
7856
7853
7835
7675
7844
7603
7872
7637
7864
7705
7755
7820
7694
7881
7586
7942
7601
7972
7713
7946
7804
7832
7923
7944
8239
8108
8409
8348
8519
8550
8573
8758
8598
8924
8624
8899
8550
8770
8555
8595
8551
8408
8538
8231
8478
8136
8360
8065
8135
7984
7868
7881
7640
7797
7576
7760
7629
7688
7681
7570
7750
7470
7787
7432
7809
7528
7872
7759
7954
8047
8000
8152
7956
8230
8046
8342
8337
8506
8650
8636
8917
8760
9039
8785
8996
8807
8841
8792
8636
8776
8451
8686
8273
8514
8162
8345
8145
8144
8097
7913
8004
7773
7927
7714
7813
7753
7730
7867
7655
7905
7544
7865
7548
7839
7673
7827
7848
7788
7976
7753
7995
7718
8006
7861
8116
8157
8212
8340
8154
8353
8101
8313
8202
8386
8456
8578
8917
8808
9186
8828
9105
8691
8875
8533
8545
8430
8291
8335
8024
8181
7915
8055
7887
7907
7920
7807
8012
7793
8051
7786
8021
7820
7928
7890
7807
7988
7749
8052
7760
8077
7789
8020
7866
7949
7978
7938
8111
7967
8216
8107
8320
8320
8385
8584
8461
8798
8471
8810
8450
8720
8489
8628
8541
8461
8556
8317
8489
8128
8295
7987
8040
7913
7849
7931
7780
7984
7771
7989
7822
7958
7914
7856
7987
7757
8075
7768
8145
7864
8164
7905
7980
7856
7770
7911
7784
8009
7835
8030
7941
8025
8096
8039
8321
8186
8626
8558
9034
8900
9015
8899
8788
8871
8593
8779
8362
8595
8249
8425
8192
8209
8138
7972
8023
7795
7932
7684
7797
7704
7669
7749
7554
7821
7503
7880
7581
7952
7764
8056
8113
8203
8408
8281
8514
8242
8442
8196
8295
8199
8227
8418
8352
8650
8453
8704
8514
8699
8627
8584
8680
8433
8668
8288
8554
8122
8333
8023
8132
7981
7875
7888
7636
7754
7440
7531
7368
7450
7569
7635
8011
7926
8344
8075
8353
8040
8182
8085
8099
8223
8049
8303
8008
8314
8035
8312
8188
8357
8434
8400
8542
8362
8573
8400
8573
8522
8562
8670
8494
8718
8377
8655
8246
8506
8174
8320
8176
8158
8171
7931
8032
7693
7825
7544
7644
7550
7546
7659
7505
7782
7536
7743
7462
7649
7635
7756
8014
7903
8235
7998
8371
8011
8327
8092
8316
8327
8380
8564
8546
8839
8594
8725
8607
8710
8755
8663
8870
8598
8897
8534
8809
8480
8613
8443
8410
8440
8223
8405
8066
8310
7962
8109
7867
7878
7821
7691
7830
7613
7846
7650
7749
7616
7602
7668
7527
7799
7500
7873
7548
7899
7626
7835
7729
7802
7916
7885
8226
8115
8420
8350
8650
8699
8715
8812
8630
8892
8600
8870
8643
8808
8674
8640
8646
8417
8599
8266
8563
8214
8457
8142
8215
8041
7976
7986
7767
7901
7669
7820
7685
7771
7792
7681
7870
7608
7966
7675
8014
7738
7982
7853
7914
7977
7876
8133
7922
8255
8022
8303
8198
8331
8343
8251
8409
8248
8508
8374
8596
8505
8544
8565
8397
8558
8189
8467
8080
8461
8215
8472
8301
8305
8282
8110
8257
8025
8223
7967
8049
7940
7907
8018
7851
8101
7846
8114
7856
8066
7943
8009
8066
7912
8127
7840
8142
7850
8142
7920
8124
8056
8111
8218
8075
8269
8049
8202
8060
8220
8346
8279
8470
8191
8504
8123
8402
8021
8212
8064
8242
8385
8371
8659
8455
8635
8332
8458
8181
8128
8056
7934
8081
7934
8273
8089
8314
8165
8207
8207
8043
8236
7938
8277
7905
8238
7923
8165
8034
8143
8192
8117
8298
8102
8331
8147
8309
8267
8293
8437
8311
8561
8318
8622
8343
8559
8346
8390
8358
8215
8387
8086
8349
7979
8212
7879
7979
7819
7759
7792
7605
7785
7582
7806
7688
7800
7823
7760
7965
7738
8090
7811
8225
8005
8344
8149
8219
8188
8093
8273
8089
8367
8135
8357
8207
8279
8301
8246
8457
8315
8599
8387
8647
8490
8565
8544
8403
8535
8234
8508
8110
8421
8074
8283
8043
8043
7990
7874
7987
7784
7960
7774
7917
7880
7902
8007
7850
8106
7821
8126
7830
8104
7926
8036
8035
7972
8160
7923
8198
7877
8148
7927
8135
8054
8103
8210
8069
8257
8061
8334
8235
8394
8445
8436
8637
8437
8727
8355
8644
8269
8534
8344
8480
8453
8372
8475
8240
8426
8122
8263
8021
8039
7978
7846
7990
7757
7985
7722
7956
7786
7919
7936
7913
8125
7914
8263
7956
8341
8073
8365
8212
8322
8305
8221
8380
8200
8403
8243
8416
8404
8458
8598
8455
8709
8376
8646
8274
8503
8236
8321
8243
8177
8305
8064
8300
7946
8137
7847
7970
7822
7798
7846
7707
7908
7732
7955
7808
7922
7878
7842
8004
7797
8095
7790
8156
7850
8174
7973
8130
8095
8066
8203
8031
8273
8070
8326
8225
8351
8407
8382
8577
8371
8633
8389
8665
8479
8591
8492
8404
8511
8258
8505
8151
8447
8090
8293
8014
8044
7982
7865
7952
7754
7936
7758
7915
7844
7857
7950
7772
8037
7761
8099
7800
8117
7896
8093
8047
8045
8176
8008
8282
8032
8329
8117
8321
8230
8245
8350
8245
8500
8325
8585
8426
8604
8540
8505
8589
8324
8551
8186
8508
8134
8422
8140
8257
8126
8017
8055
7834
7979
7752
7928
7802
7887
7919
7856
8027
7798
8065
7787
8061
7846
8033
7983
7992
8129
7926
8208
7960
8339
8069
8376
8223
8347
8324
8268
8412
8265
8482
8349
8536
8473
8492
8580
8419
8658
8334
8622
8251
8530
8208
8341
8173
8112
8138
7908
8060
7760
7931
7619
7713
7576
7595
7700
7631
7935
7827
8206
8126
8370
8285
8258
8319
8108
8345
8019
8420
8086
8407
8128
8293
8210
8212
8315
8174
8376
8168
8392
8278
8398
8437
8401
8591
8415
8692
8397
8665
8375
8526
8345
8311
8347
8142
8352
8010
8276
7897
8072
7827
7894
7826
7749
7878
7728
7961
7803
7970
7871
7893
7957
7818
8057
7788
8144
7826
8170
7901
8133
8017
8080
8159
8040
8266
8061
8327
8122
8317
8234
8281
8397
8311
8553
8349
8630
8429
8615
8486
8481
8507
8304
8517
8176
8487
8101
8388
8056
8174
7996
7953
7972
7801
7932
7726
7906
7751
7849
7848
7781
7954
7738
8058
7777
8108
7858
8105
7990
8091
8164
8047
8255
7995
8311
8039
8331
8161
8290
8280
8250
8407
8272
8528
8372
8573
8487
8556
8585
8445
8631
8307
8588
8211
8521
8206
8416
8227
8229
8191
7986
8090
7822
7994
7758
7897
7815
7834
7918
7786
7996
7760
8030
7799
8020
7901
7985
8051
7938
8174
7910
8278
7964
8308
8053
8281
8179
8224
8298
8186
8383
8221
8438
8331
8458
8481
8442
8637
8394
8683
8342
8622
8294
8512
8319
8395
8409
8270
8388
8032
8211
7867
8042
7805
7888
7843
7800
7925
7775
7991
7790
7989
7856
7937
7967
7872
8092
7851
8200
7875
8240
7943
8221
8056
8166
8198
8138
8317
8130
8376
8189
8380
8325
8390
8503
8393
8618
8410
8683
8418
8621
8419
8460
8428
8286
8451
8151
8426
8047
8298
7945
8088
7912
7902
7908
7770
7929
7755
7967
7825
7922
7891
7839
8003
7796
8096
7787
8137
7842
8137
7963
8121
8131
8082
8268
8077
8372
8116
8362
8184
8307
8299
8296
8460
8340
8605
8409
8667
8495
8576
8543
8416
8556
8247
8529
8146
8475
8106
8330
8067
8110
8031
7909
7997
7785
7957
7755
7906
7828
7861
7934
7796
8011
7759
8060
7797
8063
7894
8023
8027
7967
8149
7927
8233
7953
8289
8036
8292
8218
8309
8362
8267
8471
8333
8564
8428
8548
8541
8495
8630
8388
8629
8272
8568
8200
8460
8211
8330
8252
8145
8203
7936
8104
7814
7981
7783
7879
7849
7812
7951
7781
8015
7781
8020
7850
7984
7967
7922
8100
7886
8210
7882
8254
7948
8247
8078
8227
8214
8190
8335
8168
8389
8243
8433
8392
8453
8535
8424
8641
8374
8664
8326
8572
8311
8429
8334
8253
8358
8099
8334
7970
8177
7848
7993
7824
7852
7881
7776
7950
7775
7982
7827
7980
7946
7937
8059
7869
8176
7882
8252
7909
8214
7975
8161
8107
8119
8252
8105
8342
8114
8368
8218
8378
8389
8380
8549
8379
8651
8411
8658
8436
8545
8440
8376
8473
8220
8460
8097
8395
8014
8225
7941
8013
7915
7839
7918
7751
7934
7756
7934
7847
7889
7937
7810
8037
7788
8109
7822
8141
7915
8117
8041
8060
8176
8011
8308
8048
8361
8115
8349
8224
8295
8368
8299
8513
8364
8599
8445
8623
8542
8531
8600
8369
8592
8225
8541
8161
8448
8142
8273
8118
8039
8053
7849
7992
7748
7942
7771
7893
7868
7828
7977
7798
8048
7804
8074
7859
8050
7977
7987
8105
7934
8202
7922
8282
7981
8299
8091
8258
8212
8207
8337
8217
8452
8325
8546
8473
8534
8605
8472
8677
8362
8626
8263
8537
8226
8408
8252
8235
8258
8025
8183
7878
8089
7799
7957
7800
7846
7864
7784
7973
7793
8021
7830
8022
7952
7982
8064
7906
8173
7879
8244
7897
8248
7991
8225
8147
8192
8270
8163
8367
8160
8400
8274
8437
8448
8437
8584
8419
8661
8381
8634
8340
8498
8339
8337
8377
8187
8383
8039
8300
7912
8122
7851
7944
7847
7802
7896
7751
7957
7785
7964
7864
7924
7960
7855
8073
7829
8166
7862
8213
7934
8184
8049
8119
8189
8095
8315
8093
8379
8149
8365
8252
8349
8426
8370
8575
8389
8651
8433
8625
8473
8469
8477
8281
8475
8131
8443
8051
8357
8017
8170
7980
7964
7960
7815
7970
7789
7994
7849
7977
7936
7885
7986
7785
8042
7775
8085
7850
8103
7976
8061
8103
7983
8216
7974
8327
8056
8374
8168
8325
8253
8265
8405
8305
8538
8390
8588
8490
8561
8575
8449
8606
8305
8583
8195
8501
8158
8374
8163
8190
8145
7973
8086
7821
8005
7752
7927
7796
7865
7906
7811
7987
7772
8029
7811
8031
7907
7997
8046
7941
8169
7910
8266
7932
8294
8025
8276
8162
8227
8279
8195
8380
8215
8458
8346
8506
8490
8493
8624
8423
8665
8341
8611
8275
8503
8287
8346
8310
8173
8291
7963
8179
7827
8049
7787
7907
7822
7817
7916
7790
7993
7807
8010
7877
7965
7972
7898
8093
7866
8204
7878
8244
7940
8231
8069
8220
8229
8170
8337
8134
8376
8169
8404
8330
8423
8493
8410
8623
8404
8660
8395
8590
8378
8434
8400
8273
8438
8150
8405
8015
8279
7902
8060
7863
7891
7868
7767
7931
7763
7966
7808
7933
7888
7867
8001
7825
8109
7843
8199
7903
8196
8004
8153
8136
8090
8261
8076
8365
8090
8379
8183
8370
8323
8352
8489
8382
8596
8407
8632
8464
8556
8500
8402
8520
8240
8514
8137
8464
8085
8325
8026
8080
7983
7878
7961
7737
7933
7729
7918
7817
7884
7921
7822
8023
7800
8074
7820
8088
7921
8067
8040
8002
8177
7962
8262
7971
8331
8054
8327
8169
8273
8304
8247
8443
8317
8555
8414
8567
8534
8512
8628
8403
8624
8283
8575
8204
8463
8198
8310
8203
8112
8161
7898
8072
7767
7974
7735
7882
7801
7817
7916
7773
7988
7765
8001
7833
7978
7956
7933
8101
7919
8271
7956
8314
7969
8295
8106
8278
8243
8231
8369
8199
8426
8265
8487
8406
8498
8542
8481
8676
8432
8675
8358
8599
8325
8440
8315
8248
8321
8076
8274
7893
8132
7802
8000
7785
7854
7849
7780
7931
7757
7963
7802
7948
7883
7890
8001
7849
8124
7852
8219
7894
8219
7968
8166
8108
8139
8263
8122
8379
8156
8431
8261
8434
8399
8427
8549
8412
8660
8426
8664
8428
8533
8422
8370
8444
8212
8470
8112
8418
8002
8220
7909
8007
7889
7842
7912
7757
7950
7768
7949
7833
7904
7927
7845
8041
7806
8108
7830
8146
7914
8123
8033
8064
8178
8019
8299
8034
8361
8095
8361
8199
8325
8361
8339
8523
8386
8604
8460
8620
8525
8504
8531
8323
8520
8189
8515
8137
8440
8119
8252
8043
8001
8008
7822
7975
7729
7929
7723
7883
7838
7844
7949
7807
8050
7819
8078
7866
8057
7980
8026
8140
7987
8258
7973
8333
8013
8358
8134
8339
8254
8266
8367
8252
8476
8332
8545
8441
8538
8565
8466
8626
8345
8598
8241
8522
8208
8400
8234
8229
8243
8014
8164
7835
8064
7749
7954
7759
7861
7862
7809
7953
7787
8000
7817
7998
7913
7967
8034
7907
8159
7878
8242
7894
8251
7977
8229
8120
8192
8251
8142
8344
8137
8397
8250
8450
8449
8495
8626
8475
8708
8447
8696
8401
8534
8341
8348
8392
8199
8392
8043
8311
7908
8137
7845
7978
7849
7839
7900
7779
7977
7802
7986
7853
7930
7947
7876
8064
7842
8160
7856
8205
7924
8181
8049
8133
8189
8103
8322
8090
8372
8128
8376
8237
8378
8411
8391
8572
8418
8655
8438
8612
8444
8463
8456
8289
8468
8155
8456
8060
8356
7969
8133
7913
7931
7912
7783
7941
7744
7963
7811
7977
7916
7920
8016
7852
8077
7813
8113
7868
8116
7972
8071
8108
8010
8237
7995
8345
8043
8379
8128
8345
8252
8295
8402
8318
8533
8378
8581
8471
8564
8550
8445
8570
8289
8548
8178
8496
8147
8374
8135
8163
8095
7930
8033
7765
7970
7695
7911
7734
7854
7861
7826
7985
7811
8057
7851
8071
7943
8048
8085
8001
8217
7961
8295
7947
8321
8031
8322
8160
8262
8281
8222
8407
8262
8522
8412
8604
8553
8564
8614
8426
8616
8299
8558
8229
8454
8231
8307
8259
8134
8239
7923
8151
7787
8029
7731
7897
7800
7832
7901
7789
7964
7788
7988
7849
7967
7977
7942
8124
7905
8223
7908
8277
7958
8269
8093
8241
8235
8190
8341
8157
8411
8189
8443
8324
8464
8491
8431
8623
8418
8651
8395
8578
8374
8438
8384
8277
8417
8131
8397
7987
8261
7878
8070
7842
7897
7861
7775
7906
7737
7945
7769
7916
7840
7849
7945
7802
8053
7810
8149
7889
8209
8014
8192
8172
8146
8290
8103
8402
8123
8425
8182
8404
8324
8398
8495
8410
8596
8430
8630
8463
8563
8494
8405
8490
8239
8497
8125
8447
8065
8313
7989
8069
7952
7869
7938
7733
7941
7730
7937
7798
7906
7907
7847
8004
7817
8073
7829
8095
7911
8074
8032
8009
8168
7962
8282
7981
8344
8042
8343
8156
8288
8283
8265
8440
8321
8555
8400
8587
8514
8524
8580
8389
8578
8260
8538
8177
8447
8170
8288
8165
8093
8154
7908
8076
7756
7991
7745
7948
7871
7930
7977
7854
8013
7803
8015
7845
7994
7953
7969
8115
7940
8231
7920
8296
7957
8321
8113
8304
8227
8225
8324
8182
8431
8271
8508
8395
8502
8518
8473
8627
8412
8622
8314
8537
8269
8410
8293
8254
8316
8072
8257
7879
8132
7774
8003
7759
7869
7830
7800
7929
7779
7986
7817
7984
7902
7946
8027
7896
8144
7870
8227
7894
8229
7985
8204
8120
8160
8254
8127
8369
8131
8417
8207
8425
8352
8436
8527
8444
8646
8431
8648
8412
8538
8416
8388
8443
8235
8464
8106
8403
7977
8223
7897
8030
7883
7860
7904
7758
7951
7761
7968
7829
7932
7920
7870
8034
7831
8120
7854
8167
7923
8139
8035
8088
8169
8033
8302
8030
8373
8077
8376
8179
8350
8346
8361
8515
8393
8607
8443
8595
8482
8495
8497
8320
8494
8177
8480
8098
8401
8054
8212
8000
7987
7996
7833
7986
7720
7956
7734
7921
7823
7882
7945
7839
8041
7828
8086
7895
8125
8029
8094
8153
7997
8245
7968
8331
7994
8348
8083
8311
8219
8270
8353
8259
8478
8337
8566
8443
8584
8557
8491
8614
8357
8591
8254
8520
8214
8411
8214
8220
8198
7996
8146
7827
8062
7741
7974
7752
7900
7869
7850
7962
7817
8009
7825
8018
7905
7977
8030
7932
8161
7905
8257
7914
8288
7992
8265
8133
8231
8266
8184
8376
8187
8446
8286
8500
8432
8499
8574
8457
8642
8383
8601
8321
8487
8299
8335
8332
8175
8341
7990
8239
7838
8099
7772
7955
7790
7843
7882
7790
7953
7780
7973
7819
7934
7921
7903
8061
7875
8168
7891
8236
7963
8262
8121
8216
8205
8123
8334
8105
8407
8139
8422
8250
8428
8417
8435
8555
8432
8631
8428
8600
8422
8464
8434
8296
8454
8171
8459
8075
8377
7974
8161
7899
7940
7900
7781
7932
7728
7961
7779
7956
7857
7899
7955
7844
8049
7820
8116
7879
8137
7985
8102
8117
8032
8242
8016
8352
8038
8386
8118
8366
8232
8331
8400
8351
8543
8387
8614
8460
8566
8514
8433
8525
8289
8520
8158
8473
8121
8361
8103
8147
8057
7929
8031
7772
7998
7728
7967
7782
7928
7884
7878
7994
7840
8056
7861
8081
7939
8062
8059
8008
8179
7948
8271
7936
8327
8019
8337
8148
8285
8274
8246
8428
8298
8544
8384
8569
8489
8546
8586
8455
8616
8334
8569
8247
8469
8240
8326
8254
8142
8226
7918
8144
7784
8040
7731
7943
7793
7874
7899
7818
7982
7806
8004
7851
7985
7949
7947
8076
7905
8203
7902
8270
7945
8258
8048
8232
8202
8177
8325
8146
8394
8166
8459
8313
8491
8461
8463
8587
8425
8638
8376
8565
8338
8426
8329
8257
8380
8120
8362
7953
8248
7847
8084
7821
7914
7846
7811
7930
7790
8002
7823
7998
7882
7941
7999
7899
8114
7879
8188
7900
8203
7986
8160
8109
8113
8254
8072
8369
8087
8409
8137
8402
8295
8409
8468
8412
8589
8436
8629
8443
8553
8444
8401
8464
8236
8472
8113
8425
8029
8291
7952
8076
7934
7875
7927
7740
7950
7724
7958
7784
7932
7882
7877
7992
7836
8077
7848
8110
7922
8101
8027
8038
8172
7991
8300
8003
8376
8053
8375
8154
8335
8278
8290
8441
8334
8565
8396
8602
8485
8530
8529
8382
8547
8270
8543
8203
8481
8169
8310
8144
8087
8098
7868
8043
7721
7980
7702
7930
7786
7886
7898
7834
7984
7821
8047
7870
8049
7968
7995
8079
7941
8206
7934
8306
7969
8338
8081
8320
8238
8293
8365
8228
8441
8260
8505
8358
8517
8481
8475
8582
8394
8591
8313
8527
8251
8424
8281
8288
8330
8118
8249
7865
8127
7768
8022
7748
7907
7819
7837
7929
7806
8002
7816
8006
7882
7962
7990
7923
8113
7891
8207
7892
8237
7967
8219
8106
8187
8248
8144
8365
8117
8413
8186
8477
8368
8488
8493
8455
8613
8419
8621
8375
8515
8356
8372
8377
8220
8414
8085
8364
7938
8212
7845
8039
7848
7889
7896
7791
7959
7782
7999
7826
7965
7916
7914
8023
7864
8116
7860
8171
7918
8168
8025
8115
8177
8088
8305
8060
8402
8086
8410
8174
8399
8342
8410
8520
8421
8622
8444
8616
8468
8520
8465
8351
8475
8196
8478
8090
8409
8038
8222
7963
8001
7954
7830
7962
7733
7990
7755
7984
7825
7921
7921
7869
8025
7847
8087
7876
8092
7958
8050
8087
8002
8218
7970
8329
8003
8378
8087
8367
8206
8309
8360
8320
8511
8364
8591
8443
8598
8525
8514
8564
8364
8547
8246
8499
8193
8413
8177
8223
8138
7987
8105
7809
8047
7720
7986
7729
7922
7836
7870
7933
7827
8009
7827
8038
7900
8025
8021
7979
8154
7936
8262
7945
8318
8007
8336
8140
8280
8260
8217
8381
8210
8480
8290
8536
8417
8535
8537
8474
8607
8375
8570
8294
8496
8273
8365
8300
8209
8323
8011
8240
7828
8106
7745
7966
7762
7865
7856
7816
7955
7788
7992
7818
7977
7913
7941
8040
7911
8174
7913
8245
7936
8228
8021
8201
8207
8183
8320
8128
8393
8113
8433
8219
8461
8397
8488
8570
8467
8630
8426
8591
8383
8470
8399
8314
8414
8169
8416
8031
8320
7902
8137
7845
7962
7859
7814
7919
7747
7986
7781
7981
7827
7935
7931
7881
8045
7861
8126
7878
8158
7964
8136
8094
8082
8231
8040
8358
8049
8406
8096
8387
8208
8367
8385
8381
8539
8400
8618
8432
8580
8476
8461
8481
8301
8489
8167
8471
8095
8368
8047
8166
8016
7948
7997
7780
7988
7712
7980
7755
7955
7852
7907
7949
7847
8021
7841
8075
7913
8080
8023
8038
8172
7998
8259
7956
8345
8021
8380
8136
8344
8252
8284
8406
8304
8540
8366
8584
8470
8565
8546
8466
8565
8330
8542
8217
8462
8192
8340
8190
8140
8162
7916
8105
7755
8032
7699
7960
7758
7908
7879
7854
7968
7819
8013
7849
8025
7931
7990
8066
7950
8183
7918
8271
7944
8298
8037
8270
8169
8220
8305
8173
8413
8202
8499
8310
8539
8446
8532
8574
8459
8615
8364
8548
8305
8441
8282
8289
8314
8124
8302
7927
8200
7804
8073
7759
7944
7829
7859
7922
7820
7998
7819
8019
7866
7986
7968
7940
8088
7908
8169
7900
8205
7947
8185
8070
8149
8223
8118
8346
8088
8420
8138
8465
8291
8485
8456
8454
8576
8441
8630
8415
8551
8388
8405
8394
8257
8436
8124
8416
8010
8289
7906
8092
7879
7899
7894
7767
7942
7733
7991
7779
7972
7862
7921
7965
7879
8062
7859
8127
7907
8136
7999
8093
8139
8035
8272
8020
8378
8050
8408
8124
8369
8258
8367
8437
8390
8582
8419
8636
8462
8571
8492
8428
8517
8282
8503
8167
8455
8113
8298
8039
8078
8005
7856
7994
7720
7986
7712
7980
7783
7941
7886
7879
7977
7853
8045
7863
8073
7949
8048
8073
8014
8205
7966
8298
7978
8355
8042
8344
8162
8281
8291
8254
8451
8304
8560
8375
8581
8488
8541
8563
8419
8555
8295
8502
8201
8414
8202
8261
8214
8083
8196
7893
8144
7758
8042
7725
7970
7819
7905
7917
7839
7993
7819
8029
7879
8019
7984
7988
8122
7952
8233
7945
8295
7990
8290
8109
8265
8243
8199
8372
8183
8468
8216
8515
8348
8538
8491
8518
8599
8443
8607
8361
8526
8309
8396
8323
8234
8347
8068
8309
7890
8167
7792
8030
7770
7888
7845
7797
7941
7774
7990
7791
7973
7861
7947
7988
7908
8110
7893
8189
7912
8191
8005
8151
8136
8118
8277
8069
8383
8076
8424
8143
8432
8315
8451
8489
8435
8615
8438
8622
8421
8528
8421
8375
8444
8235
8459
8099
8397
7996
8220
7901
8010
7881
7818
7911
7725
7963
7738
7988
7796
7959
7888
7898
7986
7851
8070
7870
8114
7943
8100
8045
8028
8177
7998
8314
7996
8382
8059
8398
8194
8404
8364
8390
8536
8447
8658
8473
8631
8489
8524
8501
8368
8506
8244
8481
8158
8402
8116
8221
8064
7989
8032
7807
8012
7687
7985
7694
7946
7802
7916
7923
7872
8016
7858
8067
7898
8064
7992
8022
8128
7978
8247
7965
8333
8007
8355
8111
8317
8239
8264
8374
8242
8500
8318
8594
8397
8582
8502
8510
8571
8390
8559
8288
8483
8229
8372
8231
8211
8238
7988
8179
7812
8094
7716
7994
7729
7918
7837
7863
7955
7821
8003
7818
8000
7879
7978
8006
7944
8133
7919
8243
7941
8257
8003
8244
8141
8196
8278
8157
8401
8154
8465
8229
8515
8373
8506
8513
8472
8606
8422
8594
8366
8496
8356
8369
8393
8220
8395
8018
8289
7861
8127
7789
7978
7805
7853
7903
7787
8002
7792
8010
7809
7970
7897
7924
8009
7884
8110
7887
8176
7947
8174
8055
8121
8202
8089
8341
8075
8427
8090
8426
8201
8433
8370
8435
8520
8424
8616
8430
8594
8420
8469
8425
8322
8449
8179
8433
8070
8348
7978
8149
7925
7942
7921
7783
7945
7694
7984
7732
7977
7812
7936
7928
7897
8031
7863
8094
7914
8131
8015
8099
8146
8035
8263
8008
8370
8037
8417
8127
8391
8226
8323
8389
8333
8535
8372
8615
8452
8615
8519
8501
8541
8342
8518
8213
8471
8166
8359
8143
8150
8100
7927
8058
7749
8016
7669
7992
7723
7951
7846
7892
7950
7842
8027
7849
8051
7921
8037
8027
7981
8164
7951
8271
7949
8323
8021
8312
8143
8272
8275
8218
8405
8217
8516
8313
8575
8417
8560
8520
8488
8584
8380
8546
8288
8460
8271
8343
8301
8173
8276
7945
8196
7785
8072
7724
7973
7773
7875
7892
7834
7980
7812
8020
7835
7997
7910
7958
8045
7913
8154
7912
8217
7943
8217
8039
8205
8199
8164
8350
8129
8425
8146
8509
8299
8550
8452
8506
8571
8454
8614
8402
8559
8356
8439
8366
8289
8403
8140
8376
7973
8254
7847
8082
7813
7913
7834
7788
7929
7752
8010
7784
8022
7849
7977
7958
7940
8080
7914
8156
7934
8183
8002
8145
8119
8090
8253
8047
8377
8051
8419
8101
8409
8239
8411
8426
8419
8561
8426
8625
8432
8565
8431
8415
8445
8282
8459
8143
8429
8072
8294
7984
8065
7959
7869
7952
7718
7978
7684
8001
7758
7974
7860
7918
7966
7871
8041
7874
8090
7935
8084
8037
8024
8171
7988
8294
7988
8362
8030
8364
8137
8309
8267
8280
8437
8312
8567
8369
8625
8470
8608
8568
8483
8556
8307
8489
8194
8415
8172
8280
8169
8050
8111
7846
8079
7710
8029
7695
7968
7768
7922
7894
7870
7990
7848
8049
7880
8050
7973
8017
8092
7967
8198
7943
8281
7967
8285
8056
8248
8188
8201
8307
8145
8425
8202
8528
8337
8559
8473
8542
8568
8454
8593
8387
8553
8321
8416
8315
8280
8334
8091
8288
7902
8179
7789
8045
7756
7921
7817
7815
7930
7791
7998
7794
7999
7845
7967
7949
7931
8076
7907
8159
7912
8202
7991
8189
8130
8154
8286
8131
8415
8119
8465
8168
8500
8337
8524
8495
8497
8616
8458
8631
8406
8533
8392
8388
8405
8238
8420
8089
8359
7945
8184
7847
7984
7815
7803
7868
7702
7925
7683
7954
7723
7927
7810
7900
7951
7877
8064
7880
8121
7944
8134
8053
8104
8211
8087
8375
8076
8469
8138
8493
8229
8456
8391
8467
8579
8479
8691
8498
8684
8497
8567
8488
8402
8498
8262
8473
8148
8405
8099
8226
8032
7991
8007
7798
7997
7692
8003
7685
7976
7762
7923
7867
7851
7954
7817
8019
7851
8038
7936
8002
8054
7951
8185
7925
8279
7956
8314
8027
8260
8136
8192
8261
8173
8437
8256
8548
8348
8583
8466
8535
8554
8444
8596
8354
8542
8273
8415
8239
8224
8221
8006
8200
7866
8158
7784
8090
7807
8010
7892
7934
7979
7855
8009
7820
8018
7871
7997
7991
7981
8133
7964
8251
7961
8255
7994
8244
8117
8189
8243
8136
8365
8130
8480
8255
8581
8397
8557
8517
8496
8584
8420
8595
8396
8548
8382
8413
8399
8244
8403
8084
8375
7971
8228
7841
8024
7815
7883
7877
7774
7947
7733
7977
7769
7977
7874
7952
8005
7913
8104
7889
8132
7898
8123
7991
8082
8126
8017
8252
7993
8337
7999
8362
8094
8378
8280
8392
8451
8393
8561
8383
8556
8371
8462
8386
8340
8467
8256
8498
8139
8411
8038
8229
8004
8056
8022
7898
8050
7802
8066
7784
8054
7847
7992
7919
7911
8007
7874
8083
7897
8110
7990
8094
8121
8045
8253
8042
8409
8085
8453
8137
8399
8212
8337
8371
8325
8518
8328
8581
8375
8557
8423
8440
8427
8271
8422
8155
8408
8103
8285
8040
8044
7970
7807
7942
7636
7899
7539
7871
7595
7888
7793
7938
8011
7951
8117
7945
8128
7982
8130
8099
8088
8215
8017
8309
8003
8366
8080
8395
8212
8350
8340
8290
8467
8258
8556
8324
8609
8440
8612
8554
8537
8599
8408
8567
8330
8502
8307
8380
8308
8171
8241
7922
8153
7762
8046
7682
7937
7736
7867
7858
7808
7959
7800
8015
7815
7996
7878
7944
7987
7886
8073
7858
8144
7909
8180
8002
8122
8081
8026
8203
7978
8280
7980
8344
8087
8400
8307
8468
8559
8519
8697
8506
8679
8504
8613
8518
8458
8514
8280
8513
8120
8401
8015
8258
7956
8014
7903
7855
7959
7762
8000
7753
7997
7799
7970
7926
7934
8045
7914
8152
7966
8221
8090
8268
8272
8255
8424
8220
8525
8170
8513
8155
8432
8205
8378
8370
8352
8474
8314
8490
8276
8414
8250
8258
8264
8140
8338
8065
8342
7995
8197
7906
8001
7903
7850
7988
7810
8104
7832
8179
7926
8175
7996
8073
8063
7979
8118
7946
8154
7994
8149
8068
8053
8154
7953
8222
7919
8280
7945
8261
7988
8150
8044
8041
8175
8021
8277
8049
8327
8102
8242
8155
8121
8230
8095
8381
8202
8463
8231
8341
8202
8136
8261
8101
8399
8054
8401
8061
8382
8177
8361
8288
8253
8315
8112
8293
8082
8260
8102
8155
8177
8050
8237
7988
8297
7991
8316
8074
8267
8188
8185
8287
8131
8401
8131
8462
8191
8446
8314
8392
8389
8284
8388
8156
8356
8128
8259
8139
8103
8155
7942
8143
7798
8126
7781
8079
7813
8007
7911
7945
8032
7890
8093
7861
8082
7885
8024
7960
7955
8066
7916
8147
7920
8185
7979
8183
8121
8152
8272
8128
8414
8099
8458
8143
8490
8306
8518
8470
8494
8575
8419
8570
8330
8459
8281
8304
8270
8139
8297
7977
8199
7804
8032
7695
7827
7629
7593
7637
7479
7731
7494
7808
7557
7823
7712
7892
7958
7945
8132
7989
8276
8139
8409
8368
8422
8535
8447
8701
8378
8684
8335
8668
8366
8539
8410
8442
8489
8370
8589
8366
8543
8302
8377
8270
8226
8316
8121
8357
8052
8309
8033
8225
8129
8206
8287
8147
8425
8134
8467
8120
8398
8088
8202
8056
8034
8092
7939
8117
7930
8109
7977
8059
8076
7991
8184
7939
8284
7963
8309
8022
8258
8106
8168
8234
8153
8400
8171
8428
8180
8405
8202
8237
8167
8026
8126
7906
8112
7926
8133
8008
8015
7987
7820
8018
7734
8079
7775
8166
7927
8232
8161
8251
8289
8190
8349
8085
8245
7981
8075
7982
7963
8070
7920
8158
7898
8197
7970
8251
8111
8153
8160
8029
8266
8042
8441
8206
8584
8345
8527
8443
8448
8496
8350
8478
8230
8416
8280
8335
8262
8097
8239
7966
8281
7969
8327
7981
8204
7999
8066
8060
7998
8204
7974
8224
7980
8206
8061
8183
8181
8090
8220
8000
8212
7966
8179
8046
8149
8173
8082
8279
7997
8334
7976
8356
8087
8430
8360
8471
8510
8435
8578
8391
8560
8344
8437
8266
8173
8181
7938
8112
7786
8003
7629
7786
7524
7569
7559
7478
7709
7497
7879
7672
8072
7920
8169
8059
8052
8116
8015
8230
8035
8228
8071
8202
8211
8116
8250
8043
8434
8193
8686
8503
8841
8635
8740
8739
8661
8799
8571
8796
8490
8653
8457
8488
8456
8359
8463
8185
8363
8019
8126
7842
7839
7802
7743
7927
7644
7931
7614
8009
7717
7967
7808
7925
7948
7895
8069
7943
8202
8045
8198
8131
8142
8227
8042
8295
8004
8325
7987
8236
8018
8134
8115
8097
8323
8179
8542
8332
8656
8493
8702
8612
8618
8612
8431
8570
8332
8473
8238
8278
8175
8026
8092
7806
8017
7593
7896
7527
7835
7637
7828
7861
7871
8030
7851
8069
7851
8049
7900
8002
8018
7979
8193
8006
8267
7999
8277
8093
8216
8183
8132
8272
7995
8245
7906
8291
8018
8344
8169
8273
8238
8167
8241
8012
8186
8048
8325
8395
8560
8770
8606
8796
8428
8710
8346
8563
8239
8289
8157
8090
8195
7967
8192
7899
8160
7916
8071
7966
8004
8095
7992
8174
7958
8146
7967
8111
8066
8054
8210
8017
8322
7982
8348
8019
8376
8173
8350
8278
8254
8401
8218
8424
8163
8310
8096
8139
8099
8038
8236
8039
8312
7991
8214
7981
8065
7933
7863
8025
7853
8145
7881
8276
8007
8304
8080
8168
8143
8093
8230
8034
8214
8018
8160
8069
8088
8179
8004
8269
7991
8348
8025
8351
8107
8288
8218
8230
8364
8220
8498
8281
8535
8298
8435
8262
8243
8292
8146
8336
8109
8341
8124
8237
8154
8100
8154
7919
8169
7840
8212
7905
8243
7998
8145
8023
7983
8055
7905
8106
7908
8101
7950
8026
8024
7970
8165
7956
8253
7959
8243
7994
8150
8024
7992
8107
7939
8203
7904
8265
7962
8214
8001
8086
8062
8035
8252
8188
8428
8295
8534
8450
8433
8494
8378
8703
8459
8802
8405
8625
8228
8345
8167
8138
8194
8018
8222
7981
8253
8027
8182
8058
8074
8147
8009
8210
7974
8227
8027
8207
8140
8155
8253
8092
8356
8038
8421
8104
8462
8227
8436
8365
8400
8471
8318
8442
8158
8272
8034
8048
7984
7852
7963
7701
7934
7590
7896
7630
7796
7679
7737
7892
7838
8204
8005
8364
8082
8368
8170
8271
8237
8170
8257
8049
8258
8051
8225
8133
8170
8238
8123
8377
8103
8455
8085
8416
8142
8387
8289
8365
8434
8313
8539
8316
8541
8306
8429
8280
8242
8298
8164
8384
8119
8319
7994
8066
7871
7814
7821
7625
7840
7542
7915
7646
8053
7828
7980
7898
7997
8083
7925
8101
7956
8159
8012
8097
8092
8019
8194
7984
8320
8045
8410
8164
8437
8336
8441
8519
8413
8669
8438
8762
8534
8822
8637
8740
8701
8612
8701
8460
8587
8327
8431
8252
8214
8149
7914
8034
7666
7937
7538
7842
7515
7746
7609
7696
7742
7631
7830
7617
7847
7647
7846
7780
7820
7941
7864
8101
7891
8225
8101
8454
8414
8532
8628
8491
8701
8409
8765
8447
8778
8501
8719
8572
8563
8556
8375
8464
8196
8327
8104
8147
8089
7988
8082
7782
8011
7664
8030
7828
8172
8015
8126
8188
8118
8266
7966
8192
7908
8130
7915
7972
7907
7834
7931
7755
7963
7784
8022
7922
8010
8068
8029
8327
8124
8505
8191
8573
8263
8520
8377
8509
8576
8498
8710
8602
8911
8726
8796
8551
8472
8448
8186
8288
7912
8088
7720
7868
7644
7672
7695
7688
7980
7832
8228
7953
8291
8010
8223
8100
8143
8147
7993
8119
7895
8066
7937
8072
8068
8035
8228
8033
8367
8049
8419
8143
8455
8274
8370
8372
8321
8500
8317
8561
8306
8516
8309
8396
8331
8217
8267
8013
8180
7973
8215
7998
7993
7947
7822
7941
7629
7905
7609
8068
7839
8087
7838
7903
7879
7783
7924
7799
8090
7990
8240
8216
8254
8333
8168
8406
8143
8473
8216
8506
8328
8434
8401
8333
8528
8326
8636
8359
8652
8347
8472
8269
8237
8211
8029
8140
7918
8071
7867
7946
7873
7776
7899
7713
8135
7958
8384
8047
8297
8055
8197
8120
8024
8125
7871
8063
7796
7982
7804
7932
7918
7860
7960
7807
8125
8007
8299
8170
8306
8294
8267
8521
8407
8831
8541
8917
8625
8905
8687
8795
8724
8613
8656
8389
8503
8242
8370
8255
8246
8272
8065
8221
7861
8096
7724
7934
7663
7777
7708
7640
7777
7566
7840
7528
7833
7573
7791
7686
7778
7829
7717
7906
7737
8002
7947
8175
8213
8273
8474
8301
8586
8289
8667
8371
8750
8570
8741
8665
8636
8762
8564
8765
8491
8658
8436
8479
8396
8301
8370
8114
8307
7958
8093
7802
7872
7760
7690
7800
7581
7872
7549
7904
7561
7813
7559
7681
7647
7565
7662
7513
7758
7596
7807
7709
7765
7924
7892
8189
7994
8395
8165
8677
8652
8996
9045
9125
9278
9059
9218
8868
9048
8736
8879
8666
8617
8580
8428
8556
8358
8514
8233
8267
8089
7967
8004
7761
8004
7670
7978
7609
7948
7710
7878
7754
7721
7829
7693
7938
7775
7999
7864
7975
7933
7886
8055
7908
8209
7983
8310
8136
8390
8383
8380
8444
8224
8476
8117
8436
8083
8392
8173
8320
8244
8190
8305
8155
8320
8046
8187
8066
8072
8039
7778
7888
7532
7815
7475
7827
7682
8000
7908
7913
7950
7808
8112
7950
8327
8233
8651
8733
8828
8779
8650
8810
8551
8706
8420
8515
8389
8388
8444
8220
8435
8094
8433
8093
8439
8190
8393
8285
8295
8374
8198
8340
8072
8213
7980
8049
8017
7945
8071
7913
8170
7847
8067
7773
7959
7853
7909
8018
7894
8142
7837
8136
7835
8108
7878
8010
7941
7911
8014
7863
8008
7789
7967
7905
8022
8135
8044
8312
8099
8505
8209
8579
8370
8658
8523
8557
8612
8492
8652
8396
8607
8343
8493
8308
8289
8263
8118
8275
8031
8247
7972
8153
8027
8051
8087
7899
8093
7792
8088
7689
7955
7620
7784
7615
7585
7608
7484
7636
7470
7745
7627
7779
7827
7902
8187
8131
8519
8312
8685
8539
8910
8857
8941
8982
8828
8991
8618
8846
8471
8700
8427
8483
8332
8243
8303
8127
8339
8102
8249
8087
8147
8147
8000
8154
7854
8136
7771
8071
7734
7975
7777
7823
7840
7766
7952
7718
7946
7730
7935
7836
7879
7899
7798
8000
7809
8115
7995
8309
8229
8386
8512
8411
8591
8340
8698
8432
8833
8579
8840
8682
8692
8634
8436
8473
8153
8272
8004
8034
7899
7763
7839
7566
7762
7409
7712
7497
7863
7789
8008
8165
8180
8427
8169
8381
8032
8303
8104
8303
8217
8239
8393
8252
8439
8235
8407
8222
8295
8285
8196
8380
8112
8436
8112
8502
8218
8520
8354
8479
8496
8416
8553
8323
8492
8239
8383
8200
8199
8188
8025
8145
7851
8035
7692
7840
7599
7634
7621
7603
7871
7679
8018
7735
8031
7714
7953
7784
7850
7873
7810
7991
7852
8053
7889
8061
8082
8181
8441
8322
8616
8326
8627
8266
8533
8345
8488
8482
8423
8544
8300
8492
8177
8439
8263
8460
8446
8442
8503
8327
8460
8179
8318
8062
8145
8119
8048
8235
8041
8364
7980
8298
7908
8150
7912
8016
7961
7895
8003
7796
7979
7767
7941
7855
7978
8089
8039
8256
8027
8371
8196
8560
8405
8503
8430
8368
8514
8277
8566
8221
8516
8142
8313
8088
8146
8087
7969
8068
7837
7982
7786
7917
7859
7826
7910
7717
8022
7765
8157
7899
8301
8194
8431
8409
8375
8462
8229
8416
8113
8367
8124
8260
8181
8161
8228
8079
8346
8172
8446
8261
8388
8303
8245
8377
8150
8450
8142
8537
8240
8554
8375
8533
8487
8434
8484
8274
8420
8162
8318
8150
8167
8156
7992
8115
7818
8045
7700
7926
7651
7782
7701
7681
7832
7645
7928
7636
7979
7714
7986
7831
7928
7936
7874
8029
7864
8083
7927
8073
8021
8018
8114
7912
8167
7871
8251
7932
8316
8176
8421
8383
8442
8539
8425
8699
8488
8787
8608
8817
8737
8675
8694
8493
8639
8289
8371
7998
8032
7828
7715
7720
7459
7716
7414
7758
7411
7724
7506
7736
7803
7912
8124
8142
8491
8387
8607
8493
8552
8574
8529
8738
8450
8697
8386
8662
8366
8531
8442
8445
8513
8313
8565
8297
8564
8244
8419
8197
8253
8182
8020
8089
7834
7975
7772
7903
7741
7694
7738
7575
7847
7564
7957
7659
8126
8016
8331
8263
8343
8456
8310
8461
8226
8459
8227
8333
8206
8186
8270
8102
8330
8062
8324
8092
8284
8183
8207
8314
8178
8469
8207
8562
8275
8603
8365
8517
8379
8331
8363
8182
8342
8116
8278
8106
8133
8058
7882
7979
7657
7912
7544
7840
7564
7776
7660
7710
7789
7664
7910
7683
8020
7852
8207
8085
8190
8172
8076
8222
8018
8248
8051
8246
8152
8199
8262
8124
8379
8119
8508
8189
8580
8383
8679
8582
8638
8671
8496
8611
8350
8516
8301
8409
8310
8235
8255
8001
8135
7791
7969
7607
7722
7547
7543
7540
7359
7554
7243
7474
7084
7424
7252
7502
7503
7717
8055
8139
8467
8379
8623
8555
8727
8798
8820
9169
9011
9258
8865
9175
8873
9078
8889
8873
8811
8673
8840
8568
8794
8463
8615
8380
8427
8371
8259
8359
8105
8256
7934
8038
7838
7836
7823
7672
7873
7580
7926
7575
7932
7640
7880
7736
7810
7863
7774
7972
7796
8024
7856
8012
7952
7961
8076
7941
8204
7963
8279
8013
8270
8137
8250
8312
8259
8507
8269
8616
8312
8619
8349
8493
8361
8337
8362
8212
8361
8103
8253
8026
8035
7953
7838
7953
7684
7982
7658
8028
7741
8017
7838
7963
7971
7897
8035
7808
8033
7787
8028
7892
8013
8022
7992
8159
8002
8298
8105
8381
8264
8385
8415
8346
8558
8331
8669
8357
8702
8422
8687
8502
8574
8539
8425
8524
8304
8459
8233
8332
8197
8137
8154
7929
8098
7773
8017
7680
7925
7707
7802
7781
7708
7878
7653
7940
7630
7920
7642
7844
7757
7841
7948
7907
8186
8081
8361
8230
8429
8439
8412
8578
8384
8704
8404
8777
8467
8784
8573
8710
8665
8605
8702
8463
8648
8377
8528
8320
8384
8329
8202
8282
7991
8142
7833
8009
7770
7863
7810
7746
7920
7719
8038
7711
8045
7737
8019
7830
7944
7936
7904
8103
7979
8184
8008
8160
8081
8100
8192
8046
8307
8039
8389
8091
8425
8222
8401
8389
8367
8530
8354
8620
8349
8612
8361
8522
8370
8379
8406
8261
8374
8086
8210
7945
8009
7892
7802
7896
7680
7995
7709
8089
7765
8079
7850
8006
7944
7930
8047
7920
8158
7957
8180
8020
8142
8113
8067
8232
8034
8323
8074
8361
8164
8316
8286
8303
8481
8293
8580
8289
8620
8307
8555
8318
8397
8336
8264
8376
8213
8429
8238
8346
8184
8144
8141
7914
8053
7669
7928
7544
7818
7546
7720
7630
7633
7737
7552
7829
7587
7923
7792
8091
8088
8242
8426
8427
8681
8529
8745
8521
8631
8525
8499
8578
8374
8627
8332
8696
8368
8700
8455
8627
8503
8452
8481
8290
8454
8208
8382
8193
8274
8228
8079
8131
7837
8050
7797
8058
7761
7923
7823
7851
7968
7772
8015
7709
8044
7765
8055
7871
8031
7997
7975
8092
7950
8160
7985
8173
8092
8155
8236
8111
8354
8073
8442
8130
8509
8285
8531
8429
8494
8561
8405
8587
8310
8517
8259
8408
8257
8269
8271
8103
8218
7915
8081
7825
7950
7811
7810
7898
7722
7983
7680
8038
7710
8037
7772
7985
7893
7939
8029
7928
8126
7965
8192
8053
8176
8174
8141
8304
8102
8398
8111
8426
8191
8437
8361
8438
8539
8418
8682
8404
