EMG
8059
7878
8038
7917
7986
7976
7919
8027
7882
8053
7890
8028
7939
7975
8023
7900
8089
7850
8131
7828
8140
7868
8099
7925
8026
8000
7965
8051
7940
8064
7958
8042
8016
7993
8096
7943
8153
7920
8179
7927
8133
7977
8076
8073
7992
8142
7929
8181
7917
8153
7931
8100
7984
8033
8051
7979
8085
7961
8075
7990
8035
8046
7957
8106
7889
8164
7865
8191
7896
8163
7962
8099
8044
8017
8118
7974
8132
7962
8112
7988
8051
8050
8008
8128
7975
8161
7979
8156
8016
8088
8084
8003
8168
7947
8223
7921
8236
7936
8186
7982
8092
8046
8029
8095
7980
8095
7984
8059
8021
7999
8084
7938
8144
7898
8175
7895
8146
7949
8088
8022
8004
8120
7953
8165
7935
8164
7952
8113
8001
8051
8078
8002
8124
7992
8131
8027
8092
8085
8027
8167
7953
8219
7910
8243
7921
8210
7969
8134
8034
8050
8097
7988
8113
7964
8108
8002
8066
8059
7998
8112
7939
8136
7936
8137
7968
8083
8036
8013
8127
7942
8184
7909
8204
7917
8172
7968
8100
8029
8029
8084
7991
8103
8002
8095
8062
8061
8148
7991
8199
7933
8221
7929
8202
7968
8152
8046
8061
8119
7993
8156
7943
8151
7947
8113
8003
8047
8066
7993
8109
7971
8120
7984
8074
8038
8016
8120
7935
8182
7890
8192
7888
8177
7913
8114
7992
8046
8072
8000
8123
7987
8113
8007
8074
8073
8023
8152
7986
8207
7971
8200
7986
8143
8046
8058
8129
7976
8180
7925
8201
7927
8164
7962
8099
8023
8038
8083
7997
8106
7994
8096
8038
8034
8093
7958
8163
7905
8182
7885
8178
7909
8135
7999
8067
8088
8001
8134
7958
8141
7965
8122
8023
8070
8092
8021
8149
7992
8170
8005
8134
8045
8045
8129
7977
8188
7927
8230
7915
8217
7942
8160
8007
8081
8068
8010
8105
7980
8101
8000
8061
8059
8009
8123
7947
8172
7921
8183
7939
8137
8001
8073
8092
7990
8157
7934
8187
7928
8162
7962
8105
8027
8043
8085
8009
8132
8007
8125
8053
8076
8130
8008
8187
7939
8238
7920
8234
7952
8193
8009
8115
8069
8020
8124
7962
8128
7964
8101
8006
8053
8071
7995
8125
7952
8142
7960
8127
8012
8059
8094
7980
8162
7922
8208
7906
8208
7933
8159
7990
8085
8061
8028
8104
7997
8118
8028
8089
8086
8048
8168
7984
8220
7944
8221
7956
8195
8022
8124
8097
8031
8164
7976
8197
7956
8165
7971
8111
8024
8044
8086
7997
8119
7975
8106
8014
8060
8070
7990
8157
7925
8209
7896
8213
7906
8176
7965
8101
8028
8023
8102
7982
8134
7986
8122
8031
8077
8105
8029
8173
7984
8203
7979
8176
8022
8121
8106
8031
8173
7964
8208
7921
8206
7934
8162
7980
8085
8048
8033
8106
8004
8118
8015
8089
8069
8028
8145
7962
8197
7920
8213
7920
8182
7967
8121
8044
8038
8119
7968
8160
7944
8145
7973
8113
8041
8052
8105
8015
8150
8005
8165
8036
8116
8098
8034
8177
7966
8229
7936
8258
7934
8219
7977
8141
8033
8057
8093
8002
8131
7996
8118
8023
8054
8071
7977
8126
7934
8166
7936
8165
7970
8113
8037
8028
8125
7964
8187
7919
8189
7919
8153
7974
8096
8050
8048
8110
8020
8143
8034
8127
8085
8069
8163
7998
8229
7953
8262
7950
8240
7982
8163
8028
8062
8106
7990
8146
7950
8133
7973
8107
8033
8051
8100
8000
8138
7972
8153
7991
8114
8052
8043
8130
7956
8187
7901
8208
7900
8196
7948
8145
8017
8073
8092
8023
8137
8010
8139
8052
8096
8117
8032
8178
7973
8227
7952
8216
7983
8173
8054
8103
8133
8012
8193
7959
8213
7954
8169
7982
8108
8051
8048
8105
8003
8126
8002
8109
8042
8048
8121
7977
8186
7923
8228
7904
8212
7936
8170
8005
8104
8091
8022
8151
7990
8151
7999
8121
8047
8073
8124
8019
8170
7989
8195
8003
8154
8043
8083
8137
8011
8209
7958
8261
7938
8239
7958
8161
8017
8079
8075
8019
8117
8006
8116
8030
8082
8085
8013
8155
7943
8188
7923
8202
7933
8155
7991
8091
8090
8006
8155
7958
8190
7956
8168
7992
8119
8063
8062
8126
8019
8163
8032
8160
8063
8087
8132
8010
8198
7950
8257
7933
8257
7948
8200
8008
8125
8071
8039
8133
7995
8137
7998
8115
8043
8060
8103
7994
8151
7944
8163
7951
8143
7998
8087
8093
8009
8174
7949
8213
7933
8228
7955
8178
8021
8106
8083
8040
8127
8026
8144
8056
8113
8105
8042
8177
7975
8242
7950
8258
7972
8221
8018
8135
8066
8028
8134
7955
8149
7946
8152
7993
8117
8062
8053
8116
8000
8147
7990
8140
8015
8080
8077
8006
8169
7942
8218
7902
8238
7932
8210
7995
8132
8047
8042
8101
8004
8137
8014
8133
8063
8086
8140
8026
8194
7980
8221
7966
8182
8007
8140
8102
8055
8179
7986
8225
7958
8225
7961
8166
8008
8099
8078
8045
8128
8028
8137
8020
8092
8073
8029
8151
7969
8215
7925
8242
7923
8208
7979
8150
8054
8070
8138
8012
8183
7990
8159
8014
8119
8070
8063
8135
8016
8173
8005
8173
8020
8128
8091
8043
8177
7979
8232
7935
8255
7943
8218
7984
8144
8034
8059
8098
8016
8131
8007
8112
8043
8061
8114
8003
8184
7960
8212
7946
8199
7973
8129
8028
8042
8121
7981
8187
7952
8207
7971
8179
8013
8115
8084
8059
8136
8025
8159
8041
8139
8090
8071
8164
8004
8226
7953
8271
7941
8243
7979
8183
8040
8093
8113
8021
8152
7989
8146
8006
8107
8052
8040
8114
7988
8156
7969
8179
7995
8144
8060
8060
8145
7987
8214
7945
8229
7927
8204
7967
8145
8018
8060
8083
8018
8136
8036
8153
8077
8101
8139
8018
8180
7946
8236
7942
8231
7986
8194
8048
8117
8135
8027
8181
7971
8197
7973
8168
8018
8115
8076
8048
8133
8012
8150
8014
8136
8055
8073
8140
7997
8204
7938
8260
7931
8240
7960
8192
8018
8119
8085
8041
8151
8012
8151
8029
8134
8082
8076
8142
8002
8180
7969
8201
7995
8184
8055
8120
8144
8029
8203
7964
8226
7935
8210
7971
8162
8029
8089
8097
8034
8131
8014
8126
8043
8086
8099
8027
8184
7956
8236
7927
8225
7948
8189
8007
8132
8097
8045
8160
7984
8175
7975
8162
8026
8124
8095
8072
8162
8028
8189
8021
8180
8064
8122
8143
8043
8214
7972
8261
7932
8260
7949
8203
7990
8123
8056
8040
8107
7996
8123
7999
8097
8056
8052
8124
7997
8196
7969
8221
7964
8183
8007
8107
8081
8023
8166
7966
8220
7946
8222
7967
8167
8021
8098
8093
8049
8146
8035
8172
8063
8115
8127
8053
8194
7986
8266
7960
8288
7972
8241
8022
8170
8095
8078
8150
8007
8168
7982
8152
8013
8103
8074
8038
8131
7988
8154
7977
8160
8019
8116
8111
8034
8183
7972
8236
7942
8265
7948
8207
7994
8134
8064
8069
8126
8028
8152
8040
8138
8087
8082
8149
8011
8213
7968
8254
7975
8232
8024
8166
8107
8088
8166
8001
8212
7964
8208
7981
8173
8032
8097
8083
8027
8128
8003
8136
8031
8108
8092
8044
8158
7966
8224
7926
8254
7930
8224
7970
8151
8050
8084
8136
8032
8176
8015
8167
8042
8127
8111
8076
8174
8019
8202
7989
8192
8016
8145
8110
8087
8181
8002
8236
7948
8257
7947
8220
7994
8157
8059
8083
8127
8037
8145
8022
8113
8057
8059
8136
8003
8206
7957
8242
7943
8215
7972
8162
8053
8090
8141
8010
8177
7959
8187
7978
8151
8017
8101
8087
8044
8151
8024
8181
8032
8150
8086
8076
8177
8010
8247
7963
8279
7947
8243
7975
8180
8043
8089
8117
8043
8166
8023
8158
8038
8108
8083
8040
8138
7981
8199
7983
8209
8006
8166
8063
8089
8147
8016
8219
7958
8239
7955
8211
7991
8166
8066
8091
8122
8046
8158
8041
8144
8080
8092
8139
8019
8217
7979
8272
7962
8262
7990
8199
8048
8129
8130
8036
8181
7989
8195
7986
8151
8030
8094
8093
8036
8135
7996
8173
8008
8144
8055
8085
8157
8014
8212
7945
8257
7931
8253
7959
8183
8023
8116
8096
8053
8155
8034
8157
8051
8139
8110
8077
8186
8016
8233
7979
8228
7994
8188
8050
8123
8132
8027
8189
7965
8228
7964
8219
8004
8166
8056
8089
8110
8038
8147
8023
8138
8057
8092
8126
8018
8202
7963
8255
7941
8266
7959
8207
8023
8138
8097
8046
8153
8007
8194
8011
8168
8060
8120
8121
8057
8167
8005
8188
7996
8163
8041
8113
8138
8034
8213
7974
8254
7942
8263
7964
8204
8021
8140
8095
8074
8141
8028
8151
8043
8121
8094
8064
8173
8004
8236
7964
8234
7960
8199
8012
8129
8097
8046
8171
7992
8220
7973
8226
8005
8175
8053
8102
8131
8058
8180
8044
8185
8072
8133
8136
8040
8184
7965
8238
7929
8264
7955
8223
8008
8157
8075
8074
8144
8017
8174
8018
8160
8050
8106
8110
8047
8170
7993
8191
7971
8169
8017
8121
8111
8049
8191
7986
8248
7958
8266
7968
8214
8014
8142
8072
8069
8137
8037
8156
8048
8131
8095
8075
8172
8013
8237
7970
8274
7972
8236
8009
8168
8083
8094
8164
8013
8202
7987
8204
8001
8156
8057
8091
8122
8050
8172
8026
8172
8032
8120
8082
8044
8165
7973
8230
7944
8275
7949
8243
7993
8170
8043
8068
8117
8023
8154
8029
8162
8066
8116
8128
8062
8196
8008
8239
7993
8218
8029
8166
8095
8089
8176
8014
8230
7965
8251
7958
8206
8002
8149
8077
8088
8139
8044
8162
8046
8136
8086
8073
8158
8002
8219
7953
8253
7949
8240
7992
8186
8079
8110
8130
8014
8176
7980
8194
8012
8178
8071
8116
8141
8060
8185
8029
8205
8042
8168
8114
8108
8199
8016
8244
7952
8255
7932
8224
7965
8165
8038
8111
8111
8048
8154
8030
8147
8041
8106
8107
8041
8180
7990
8230
7970
8216
7991
8172
8055
8114
8150
8024
8215
7982
8237
7968
8217
8020
8162
8081
8080
8137
8039
8161
8040
8153
8081
8094
8158
8024
8228
7978
8282
7956
8272
7981
8209
8038
8126
8120
8044
8173
8012
8189
8016
8151
8057
8097
8127
8047
8185
8013
8208
8023
8177
8068
8107
8156
8027
8220
7956
8255
7931
8226
7956
8172
8022
8118
8099
8060
8169
8046
8165
8065
8120
8113
8047
8191
8002
8246
7974
8252
7997
8215
8054
8137
8137
8045
8194
7987
8224
7983
8226
8017
8149
8070
8077
8132
8038
8170
8032
8162
8064
8096
8140
8026
8205
7961
8251
7928
8260
7964
8217
8023
8142
8096
8050
8154
8012
8185
8025
8166
8082
8110
8138
8056
8211
8016
8232
8017
8191
8061
8136
8140
8051
8220
7991
8248
7951
8262
7984
8207
8038
8140
8094
8060
8146
8036
8147
8048
8111
8111
8061
8187
7999
8251
7961
8267
7983
8224
8031
8157
8106
8060
8173
8002
8204
7982
8186
8018
8166
8090
8104
8164
8066
8203
8039
8182
8065
8130
8139
8053
8219
8002
8277
7954
8281
7958
8222
8004
8147
8079
8077
8144
8028
8152
8023
8145
8065
8098
8133
8036
8202
7994
8229
7996
8205
8030
8141
8116
8082
8200
8011
8241
7963
8246
7964
8189
8014
8108
8095
8087
8166
8068
8197
8069
8146
8109
8065
8189
8005
8265
7979
8274
7968
8236
8000
8166
8080
8086
8154
8020
8196
7997
8189
8025
8150
8077
8090
8139
8028
8183
8019
8189
8041
8133
8111
8053
8187
7983
8244
7950
8273
7958
8235
8002
8179
8076
8105
8146
8064
8193
8067
8190
8102
8131
8175
8056
8210
7998
8250
7991
8233
8019
8166
8089
8086
8159
7998
8204
7952
8220
7969
8209
8036
8153
8103
8075
8135
8023
8144
8030
8117
8081
8059
8164
7993
8226
7945
8261
7944
8237
7988
8185
8062
8114
8143
8050
8203
8022
8202
8043
8161
8098
8102
8161
8050
8224
8035
8229
8052
8183
8123
8109
8187
8012
8238
7963
8274
7961
8238
7998
8183
8061
8106
8124
8052
8145
8022
8131
8053
8089
8122
8032
8205
7987
8251
7976
8248
8003
8188
8073
8117
8153
8032
8206
7995
8231
7992
8200
8028
8136
8101
8096
8184
8067
8208
8061
8177
8116
8117
8187
8039
8251
7975
8283
7951
8253
7973
8199
8038
8130
8125
8058
8175
8025
8176
8037
8151
8083
8083
8144
8026
8194
7996
8216
8019
8184
8086
8119
8164
8029
8229
7978
8272
7961
8257
8002
8199
8051
8116
8120
8070
8178
8072
8182
8080
8121
8137
8040
8196
7976
8244
7959
8256
7985
8215
8043
8124
8115
8039
8185
7994
8223
8003
8205
8038
8143
8098
8079
8152
8035
8186
8027
8163
8065
8080
8137
8017
8205
7955
8272
7947
8270
7965
8209
8017
8144
8112
8071
8172
8047
8198
8071
8182
8108
8105
8184
8050
8243
8011
8241
8023
8223
8061
8142
8142
8051
8197
7989
8240
7961
8247
7990
8196
8047
8121
8114
8066
8148
8037
8153
8067
8118
8132
8056
8201
7993
8261
7953
8279
7977
8237
8030
8163
8106
8075
8176
8022
8205
8010
8209
8063
8175
8126
8106
8189
8048
8219
8046
8205
8082
8164
8166
8070
8224
7991
8258
7947
8269
7952
8215
8008
8143
8071
8067
8126
8024
8148
8026
8130
8077
8077
8143
8024
8213
7975
8232
7983
8218
8029
8157
8113
8084
8185
8006
8231
7975
8255
8006
8208
8067
8157
8142
8100
8199
8073
8205
8077
8154
8130
8085
8213
8010
8271
7958
8281
7957
8246
8006
8177
8073
8102
8152
8032
8193
8009
8167
8030
8117
8079
8058
8142
8014
8205
8008
8200
8037
8148
8109
8081
8191
8007
8257
7966
8274
7962
8228
8012
8181
8094
8131
8169
8077
8209
8076
8183
8105
8115
8179
8053
8240
8012
8285
7990
8238
8003
8177
8076
8101
8167
8034
8229
7996
8246
8000
8196
8041
8121
8104
8069
8166
8039
8183
8034
8134
8092
8068
8162
7982
8212
7926
8254
7926
8233
7984
8200
8060
8131
8152
8056
8190
8040
8207
8073
8157
8121
8099
8194
8046
8245
8022
8241
8047
8194
8105
8112
8175
8019
8227
7962
8253
7952
8235
8001
8183
8075
8110
8129
8053
8157
8041
8147
8083
8100
8149
8034
8216
7977
8269
7965
8263
7997
8213
8077
8133
8148
8052
8204
8014
8229
8026
8215
8076
8164
8136
8096
8201
8061
8218
8064
8193
8117
8134
8185
8041
8241
7970
8275
7945
8261
7963
8199
8029
8135
8119
8063
8173
8038
8171
8047
8134
8095
8066
8151
8008
8218
7988
8230
7999
8193
8057
8117
8139
8031
8207
7981
8244
7976
8256
8012
8206
8090
8154
8164
8091
8194
8073
8194
8100
8146
8171
8068
8233
7994
8275
7958
8277
7968
8218
8030
8149
8109
8064
8167
8008
8194
8008
8175
8045
8125
8106
8062
8160
8018
8193
8014
8173
8059
8122
8152
8044
8218
7979
8273
7954
8279
7976
8229
8041
8163
8127
8106
8199
8085
8233
8093
8182
8130
8095
8191
8031
8252
7992
8258
7990
8214
8037
8138
8104
8046
8178
7984
8219
7959
8208
7978
8165
8047
8109
8117
8061
8171
8048
8179
8072
8135
8132
8052
8197
7980
8262
7951
8281
7967
8240
8029
8185
8115
8114
8186
8063
8239
8063
8229
8087
8149
8133
8084
8197
8044
8248
8042
8238
8079
8169
8137
8085
8210
8001
8258
7962
8265
7966
8220
8017
8160
8082
8079
8135
8048
8171
8055
8145
8095
8081
8171
8019
8229
7980
8273
7981
8241
8022
8180
8105
8101
8179
8029
8240
8012
8259
8044
8219
8103
8169
8169
8098
8210
8067
8211
8079
8172
8144
8102
8215
8011
8258
7966
8281
7947
8240
7990
8178
8060
8104
8138
8035
8176
8022
8164
8046
8121
8108
8058
8179
8012
8215
7993
8211
8026
8172
8106
8102
8186
8016
8242
7970
8275
7980
8244
8031
8197
8106
8123
8175
8083
8193
8076
8175
8109
8113
8193
8052
8256
7988
8278
7969
8252
7993
8178
8053
8094
8140
8025
8194
8005
8217
8011
8184
8060
8114
8119
8055
8177
8032
8190
8036
8152
8086
8092
8177
8017
8250
7969
8285
7961
8274
7998
8212
8071
8149
8159
8086
8206
8069
8222
8095
8167
8151
8091
8210
8029
8261
8008
8244
8023
8196
8086
8120
8153
8024
8207
7972
8233
7959
8207
7991
8158
8068
8103
8141
8056
8164
8046
8160
8086
8108
8167
8038
8224
7983
8283
7967
8280
7989
8211
8053
8152
8143
8079
8207
8047
8236
8055
8220
8100
8161
8173
8093
8230
8058
8241
8066
8221
8116
8145
8189
8059
8249
7987
8287
7963
8273
7981
8212
8038
8127
8091
8057
8142
8028
8160
8061
8123
8097
8055
8172
7994
8232
7970
8234
7985
8196
8042
8137
8132
8057
8212
8010
8253
7994
8263
8039
8206
8108
8136
8178
8088
8218
8067
8201
8107
8158
8187
8078
8235
7999
8288
7956
8273
7967
8219
8014
8141
8093
8064
8167
8024
8191
8019
8160
8054
8106
8119
8048
8175
8018
8214
8011
8200
8071
8153
8158
8079
8228
8000
8278
7976
8292
8012
8251
8079
8189
8152
8117
8196
8088
8209
8091
8163
8125
8093
8203
8025
8263
7985
8275
7983
8222
8022
8155
8104
8079
8176
8013
8228
7997
8236
8012
8173
8070
8099
8126
8048
8177
8038
8171
8046
8124
8122
8049
8204
7991
8279
7960
8282
7961
8242
8017
8189
8111
8125
8189
8082
8231
8080
8219
8111
8166
8179
8092
8232
8045
8268
8032
8230
8055
8169
8122
8069
8173
7988
8227
7957
8254
7981
8222
8029
8160
8097
8089
8145
8040
8160
8054
8133
8097
8078
8178
8019
8247
7976
8279
7978
8257
8021
8189
8097
8112
8177
8050
8227
8031
8249
8059
8216
8117
8149
8182
8084
8228
8049
8220
8072
8176
8131
8100
8203
8005
8243
7950
8271
7941
8239
7992
8181
8061
8099
8133
8041
8154
8024
8154
8058
8110
8129
8055
8205
8005
8249
7992
8233
8020
8186
8098
8102
8169
8018
8230
7984
8267
7996
8250
8058
8205
8136
8135
8200
8094
8213
8081
8184
8138
8129
8200
8050
8278
7990
8294
7961
8245
7977
8183
8038
8110
8130
8040
8181
8000
8174
8012
8158
8073
8105
8145
8047
8187
8021
8212
8039
8186
8105
8114
8188
8033
8253
7983
8291
7974
8287
8015
8225
8095
8168
8178
8116
8212
8076
8208
8109
8159
8170
8087
8225
8022
8270
7997
8258
8017
8218
8077
8128
8138
8036
8203
7990
8230
7986
8212
8024
8166
8086
8090
8147
8038
8155
8022
8144
8070
8084
8153
8027
8223
7975
8282
7965
8286
7999
8243
8070
8181
8149
8106
8218
8069
8246
8082
8211
8115
8137
8182
8082
8247
8051
8268
8052
8214
8098
8136
8154
8038
8214
7976
8267
7965
8263
7991
8204
8042
8134
8108
8067
8159
8048
8163
8070
8131
8136
8064
8200
8006
8259
7972
8269
7983
8225
8049
8164
8144
8099
8228
8040
8265
8035
8252
8066
8195
8117
8130
8195
8092
8246
8085
8226
8119
8157
8166
8060
8229
7985
8268
7949
8267
7956
8225
8021
8173
8104
8081
8151
8014
8159
8032
8155
8084
8111
8148
8052
8204
7989
8212
7993
8210
8060
8166
8138
8063
8206
7993
8251
7974
8266
8003
8236
8075
8187
8163
8123
8209
8082
8209
8097
8176
8165
8108
8234
8040
8294
7997
8301
7974
8230
8008
8153
8080
8057
8145
8001
8192
7993
8186
8030
8156
8091
8093
8152
8042
8201
8036
8208
8070
8163
8152
8097
8222
8014
8285
7970
8283
7966
8247
8010
8185
8114
8139
8195
8090
8218
8073
8200
8115
8139
8193
8077
8255
8027
8278
8007
8239
8030
8166
8099
8085
8162
8006
8221
7973
8251
7993
8205
8033
8148
8096
8071
8145
8039
8162
8053
8150
8106
8088
8196
8031
8279
7986
8303
7975
8263
8009
8203
8089
8131
8169
8075
8227
8059
8246
8075
8192
8120
8125
8189
8074
8247
8038
8233
8049
8178
8114
8098
8181
8006
8242
7944
8266
7950
8241
7992
8180
8055
8106
8119
8046
8161
8042
8162
8090
8113
8151
8050
8219
8002
8273
7985
8255
8029
8218
8106
8140
8182
8069
8253
8026
8284
8036
8259
8082
8189
8136
8121
8194
8071
8210
8076
8194
8126
8118
8184
8025
8240
7955
8266
7943
8249
7984
8202
8039
8127
8127
8055
8181
8023
8180
8039
8149
8094
8096
8169
8042
8223
8013
8226
8030
8197
8103
8130
8185
8045
8241
7992
8290
7985
8278
8035
8235
8111
8176
8181
8110
8218
8095
8211
8121
8165
8182
8083
8230
8001
8260
7961
8246
7983
8209
8038
8130
8125
8051
8195
8006
8218
7998
8203
8046
8150
8107
8089
8159
8042
8190
8043
8182
8093
8135
8174
8051
8249
7998
8295
7970
8297
8000
8247
8058
8186
8150
8123
8215
8083
8231
8087
8193
8125
8131
8202
8075
8276
8046
8280
8030
8217
8069
8134
8130
8036
8194
7976
8241
7969
8252
7999
8206
8056
8117
8106
8053
8148
8036
8158
8072
8122
8138
8054
8196
7987
8255
7961
8288
7986
8240
8047
8183
8144
8112
8219
8069
8270
8069
8262
8094
8201
8143
8116
8206
8066
8253
8075
8233
8109
8170
8174
8074
8220
7995
8275
7949
8274
7959
8216
8015
8158
8089
8085
8161
8048
8179
8052
8153
8094
8098
8165
8029
8224
7988
8240
7989
8222
8036
8167
8125
8100
8213
8043
8270
8022
8294
8051
8264
8111
8195
8174
8117
8211
8080
8211
8094
8174
8152
8086
8211
8017
8274
7963
8282
7960
8244
8015
8184
8096
8108
8165
8035
8195
8019
8183
8045
8144
8112
8082
8157
8014
8201
8013
8217
8072
8180
8136
8099
8214
8014
8268
7977
8299
7988
8275
8044
8211
8135
8153
8191
8098
8216
8088
8196
8130
8143
8195
8065
8260
8007
8274
7977
8243
8014
8182
8096
8099
8163
8024
8207
7978
8218
7993
8192
8052
8124
8108
8077
8168
8050
8189
8058
8158
8127
8093
8197
8031
8267
7977
8299
7975
8282
8021
8219
8100
8152
8168
8082
8217
8067
8241
8090
8190
8141
8114
8210
8058
8258
8032
8238
8038
8182
8099
8098
8173
8006
8232
7967
8275
7970
8256
8007
8181
8073
8103
8139
8065
8168
8060
8157
8093
8115
8170
8044
8235
7995
8277
7972
8268
8013
8216
8088
8152
8172
8077
8245
8048
8281
8060
8261
8106
8188
8168
8112
8231
8074
8231
8070
8197
8119
8118
8181
8035
8236
7965
8281
7963
8270
8001
8215
8054
8138
8125
8061
8160
8018
8159
8047
8135
8103
8077
8177
8014
8228
7995
8237
8018
8202
8089
8140
8169
8063
8250
8018
8298
8014
8285
8056
8233
8122
8165
8179
8098
8207
8089
8200
8121
8154
8178
8062
8235
8002
8284
7969
8281
7978
8220
8043
8142
8132
8074
8197
8021
8209
8022
8195
8054
8132
8124
8075
8174
8031
8202
8030
8177
8069
8125
8172
8063
8256
8010
8311
7995
8314
8015
8263
8077
8199
8164
8133
8201
8077
8208
8090
8185
8145
8121
8217
8061
8273
8013
8268
7998
8219
8051
8141
8127
8054
8201
8005
8244
7983
8242
8007
8186
8065
8112
8127
8065
8172
8039
8172
8070
8142
8148
8062
8224
8004
8280
7975
8302
7994
8260
8053
8199
8157
8152
8228
8095
8266
8070
8231
8084
8145
8138
8095
8215
8052
8256
8041
8213
8064
8147
8130
8058
8201
7991
8252
7955
8269
7971
8229
8022
8160
8100
8098
8160
8055
8176
8062
8149
8107
8092
8185
8035
8266
8005
8292
8004
8245
8046
8197
8132
8123
8203
8052
8263
8040
8287
8056
8233
8109
8164
8172
8101
8224
8077
8222
8088
8171
8148
8085
8205
7994
8254
7953
8285
7956
8250
8012
8183
8077
8111
8153
8050
8198
8042
8180
8069
8139
8130
8074
8188
8019
8238
8013
8221
8044
8173
8122
8105
8211
8036
8279
7998
8305
8015
8286
8073
8224
8147
8151
8199
8081
8206
8087
8193
8146
8123
8200
8044
8246
7980
8269
7965
8237
8000
8179
8077
8108
8160
8038
8213
8006
8214
8019
8187
8068
8126
8138
8070
8185
8040
8198
8056
8167
8112
8102
8200
8021
8266
7982
8304
7993
8299
8034
8242
8117
8173
8197
8110
8231
8087
8225
8106
8175
8171
8109
8225
8041
8260
8011
8235
8022
8185
8092
8110
8172
8030
8231
7982
8255
7973
8227
8014
8174
8085
8106
8147
8065
8179
8062
8166
8097
8108
8178
8042
8252
7993
8279
7968
8279
8003
8235
8099
8168
8186
8111
8247
8068
8272
8069
8228
8106
8163
8182
8099
8238
8071
8241
8067
8191
8103
8105
8165
8014
8233
7969
8273
7953
8275
7986
8202
8051
8136
8134
8083
8189
8064
8190
8087
8144
8124
8059
8179
7991
8240
7978
8245
8006
8208
8067
8139
8156
8066
8232
8032
8299
8043
8299
8078
8231
8129
8159
8189
8094
8234
8098
8214
8115
8152
8180
8059
8235
7994
8289
7963
8281
7975
8219
8032
8143
8106
8058
8164
8018
8192
8027
8173
8076
8122
8148
8058
8202
8027
8224
8030
8205
8078
8138
8156
8052
8223
7999
8298
7985
8313
8030
8288
8102
8210
8176
8128
8210
8088
8217
8103
8181
8162
8098
8215
8029
8267
7985
8261
7982
8223
8039
8160
8131
8090
8203
8023
8235
8000
8233
8022
8176
8078
8106
8151
8061
8183
8044
8185
8078
8155
8170
8083
8242
8018
8298
7977
8312
8006
8283
8071
8216
8140
8134
8203
8079
8221
8064
8196
8087
8129
8171
8080
8224
8033
8255
8022
8220
8058
8160
8126
8075
8196
8000
8248
7965
8261
7982
8218
8035
8151
8103
8097
8176
8067
8182
8065
8147
8123
8091
8201
8035
8271
7993
8295
7990
8255
8038
8207
8132
8133
8213
8078
8266
8053
8269
8068
8215
8124
8145
8191
8091
8238
8066
8215
8076
8168
8139
8078
8196
7996
8247
7948
8278
7968
8257
8025
8198
8091
8122
8156
8060
8197
8063
8194
8096
8132
8160
8065
8219
8011
8259
8011
8240
8037
8183
8117
8110
8202
8048
8271
8017
8303
8036
8279
8077
8205
8156
8130
8196
8091
8216
8096
8185
8135
8105
8194
8028
8252
7972
8275
7957
8246
8000
8194
8069
8121
8155
8048
8204
8023
8217
8042
8178
8087
8113
8156
8060
8224
8036
8219
8054
8174
8113
8102
8195
8030
8264
7986
8292
7967
8287
8038
8246
8132
8184
8190
8111
8224
8099
8223
8130
8174
8185
8093
8231
8015
8257
7977
8233
7997
8188
8084
8117
8158
8038
8225
8000
8257
8000
8229
8041
8169
8104
8096
8155
8059
8194
8070
8187
8133
8127
8191
8052
8252
7991
8301
7980
8307
8015
8243
8099
8186
8187
8132
8238
8080
8261
8082
8210
8123
8142
8193
8076
8246
8046
8249
8043
8194
8087
8110
8156
8024
8232
7976
8266
7954
8253
7980
8193
8055
8140
8147
8086
8187
8073
8190
8088
8134
8149
8073
8222
8016
8272
7986
8278
8008
8230
8088
8174
8163
8105
8243
8050
8285
8048
8270
8084
8205
8134
8133
8200
8093
8238
8079
8207
8102
8127
8156
8034
8219
7966
8276
7951
8282
7979
8238
8043
8162
8119
8079
8175
8042
8197
8050
8168
8106
8120
8170
8054
8235
8021
8258
8022
8214
8063
8141
8145
8073
8247
8020
8300
8005
8305
8042
8258
8094
8180
8156
8112
8208
8089
8212
8111
8176
8168
8096
8226
8026
8277
7981
8280
7984
8234
8031
8170
8122
8091
8184
8027
8214
8001
8207
8034
8153
8095
8094
8159
8051
8206
8041
8207
8081
8156
8158
8070
8222
7999
8292
7990
8320
8012
8293
8074
8224
8155
8148
8203
8100
8228
8087
8202
8123
8156
8192
8068
8252
8024
8264
8008
8225
8034
8163
8120
8085
8192
8004
8239
7985
8258
7994
8213
8050
8151
8119
8093
8185
8064
8191
8085
8168
8149
8099
8224
8034
8287
7982
8297
7995
8276
8042
8217
8132
8163
8222
8090
8256
8063
8246
8071
8186
8112
8112
8191
8069
8238
8051
8231
8071
8165
8125
8072
8198
8003
8260
7973
8289
7974
8268
8022
8188
8082
8107
8148
8063
8186
8062
8180
8100
8115
8168
8059
8228
8002
8268
7996
8252
8029
8206
8127
8140
8218
8079
8278
8050
8305
8048
8268
8085
8197
8162
8128
8220
8096
8228
8094
8188
8141
8111
8195
8026
8249
7967
8292
7959
8263
8003
8208
8072
8141
8156
8061
8203
8045
8230
8072
8186
8117
8105
8177
8040
8224
8009
8211
8028
8172
8089
8101
8175
8039
8265
8005
8315
8003
8300
8059
8238
8126
8163
8187
8103
8213
8090
8205
8124
8154
8177
8058
8219
7985
8266
7973
8248
8006
8207
8085
8141
8154
8048
8217
8001
8235
8010
8214
8059
8162
8125
8092
8168
8050
8198
8056
8186
8123
8135
8190
8052
8254
7989
8311
7987
8312
8027
8262
8111
8203
8185
8131
8226
8084
8240
8087
8194
8133
8127
8210
8062
8256
8012
8229
8016
8190
8063
8124
8160
8043
8227
7986
8270
7977
8261
8008
8207
8079
8145
8155
8081
8196
8072
8189
8100
8143
8156
8067
8230
8008
8280
7978
8288
8008
8252
8073
8190
8169
8121
8248
8070
8278
8058
8251
8088
8191
8152
8122
8224
8069
8229
8062
8199
8086
8129
8153
8039
8229
7980
8283
7966
8279
7978
8225
8040
8165
8122
8086
8175
8056
8194
8065
8152
8116
8109
8198
8052
8256
8014
8274
8020
8231
8068
8172
8161
8102
8244
8041
8302
8034
8314
8063
8254
8113
8173
8177
8108
8212
8084
8199
8087
8143
8145
8070
8216
8006
8269
7956
8279
7971
8245
8034
8180
8128
8112
8192
8052
8228
8037
8206
8060
8139
8094
8054
8150
8021
8204
8024
8205
8073
8154
8152
8083
8234
8029
8309
8008
8326
8024
8293
8073
8214
8148
8143
8200
8099
8231
8102
8205
8141
8130
8205
8058
8254
7997
8268
7980
8223
8028
8168
8111
8095
8196
8026
8244
8000
8252
8013
8208
8071
8151
8140
8090
8198
8067
8207
8094
8173
8155
8090
8213
8010
8281
7983
8307
7981
8274
8033
8215
8123
8149
8198
8087
8239
8077
8254
8107
8195
8168
8118
8210
8047
8250
8025
8216
8041
8160
8111
8086
8191
8010
8251
7972
8282
7984
8246
8034
8188
8094
8109
8161
8068
8183
8072
8178
8118
8121
8188
8051
8246
7997
8288
7995
8271
8044
8221
8130
8156
8206
8100
8273
8047
8286
8049
8230
8091
8165
8174
8122
8232
8078
8225
8083
8177
8133
8089
8182
8006
8252
7960
8294
7960
8260
7996
8201
8066
8135
8149
8069
8197
8049
8189
8073
8143
8126
8090
8207
8037
8256
8025
8248
8041
8206
8123
8143
8201
8062
8279
8022
8321
8023
8289
8057
8223
8124
8154
8187
8106
8234
8095
8201
8137
8139
8190
8047
8239
7985
8278
7972
8252
7990
8205
8056
8129
8143
8053
8196
8010
8218
8022
8197
8073
8142
8137
8083
8202
8055
8220
8059
8197
8121
8137
8201
8067
8272
8011
8322
8005
8321
8042
8270
8107
8187
8170
8113
8217
8086
8237
8109
8190
8163
8107
8216
8032
8251
7996
8239
8005
8196
8058
8125
8153
8044
8220
7993
8262
7986
8255
8030
8199
8092
8133
8170
8085
8195
8076
8201
8116
8143
8181
8066
8243
7992
8286
7972
8293
7997
8259
8075
8189
8163
8118
8226
8074
8265
8074
8246
8114
8181
8182
8103
8215
8051
8226
8034
8188
8062
8113
8142
8030
8217
7975
8282
7969
8289
8004
8239
8065
8176
8137
8091
8176
8058
8170
8073
8142
8115
8080
8194
8031
8255
7993
8272
8015
8248
8089
8186
8179
8133
8263
8068
8302
8049
8299
8068
8239
8133
8166
8184
8100
8221
8063
8191
8078
8129
8143
8048
8206
7988
8272
7959
8292
7974
8245
8037
8185
8115
8109
8178
8056
8210
8049
8182
8083
8139
8149
8087
8219
8036
8253
8027
8219
8074
8165
8159
8098
8237
8040
8309
8011
8321
8037
8289
8080
8210
8156
8126
8208
8102
8230
8101
8183
8146
8104
8197
8024
8252
7976
8270
7982
8244
8036
8191
8117
8107
8197
8034
8232
8008
8241
8033
8194
8085
8118
8146
8060
8188
8053
8207
8073
8162
8140
8072
8215
8019
8300
7993
8331
8007
8300
8048
8229
8135
8158
8201
8094
8236
8087
8242
8121
8168
8178
8092
8230
8028
8246
8013
8235
8044
8175
8113
8093
8190
8019
8247
7985
8277
7997
8257
8039
8183
8113
8112
8174
8072
8184
8077
8177
8139
8109
8193
8037
8260
7983
8288
7985
8270
8040
8233
8138
8171
8208
8089
8251
8052
8267
8067
8223
8123
8160
8196
8093
8236
8057
8218
8064
8174
8118
8100
8199
8020
8256
7963
8285
7955
8254
8006
8201
8081
8132
8152
8070
8184
8053
8180
8086
8138
8160
8088
8232
8043
8282
8012
8257
8038
8210
8113
8135
8195
8063
8276
8043
8315
8039
8276
8070
8204
8133
8155
8207
8098
8232
8084
8188
8115
8125
8187
8034
8241
7979
8278
7963
8263
7998
8224
8088
8157
8153
8069
8200
8023
8208
8038
8185
8083
8121
8170
8077
8227
8050
8235
8049
8189
8104
8118
8182
8049
8268
8006
8318
8006
8313
8042
8252
8105
8188
8183
8113
8215
8095
8227
8119
8181
8174
8090
8224
8018
8265
7979
8252
8002
8209
8080
8137
8157
8058
8223
8010
8263
8001
8240
8046
8183
8106
8117
8179
8082
8221
8081
8207
8125
8139
8181
8059
8253
8004
8305
7977
8308
8007
8251
8067
8184
8164
8124
8223
8082
8258
8090
8222
8125
8131
8170
8064
8227
8027
8227
8034
8202
8095
8139
8164
8049
8226
7982
8271
7960
8274
8009
8224
8071
8166
8149
8094
8186
8072
8191
8087
8159
8159
8088
8223
8026
8280
7995
8303
8017
8256
8093
8196
8181
8134
8253
8063
8284
8050
8266
8072
8204
8130
8137
8197
8086
8233
8065
8205
8090
8135
8150
8052
8224
7991
8283
7957
8283
7965
8227
8024
8171
8113
8106
8192
8055
8204
8058
8185
8097
8115
8170
8065
8244
8023
8266
8029
8238
8098
8191
8170
8116
8242
8038
8311
8020
8304
8032
8248
8085
8196
8171
8133
8221
8100
8215
8096
8163
8151
8068
8193
7997
8253
7971
8281
7986
8242
8032
8179
8115
8099
8190
8033
8219
8019
8228
8051
8185
8119
8118
8193
8080
8241
8061
8219
8076
8157
8150
8074
8228
8032
8316
8012
8343
8025
8309
8077
8231
8138
8141
8178
8069
8210
8084
8200
8115
8131
8178
8065
8224
8003
8253
7995
8234
8041
8180
8123
8099
8195
8013
8235
7978
8256
7998
8224
8061
8171
8129
8108
8188
8077
8204
8081
8168
8138
8093
8209
8024
8278
7991
8309
8002
8302
8061
8250
8146
8168
8208
8085
8246
8062
8256
8091
8207
8143
8136
8206
8076
8244
8042
8221
8059
8171
8124
8098
8195
8010
8252
7966
8290
7976
8272
8022
8201
8096
8138
8168
8083
8203
8068
8190
8109
8129
8179
8063
8234
8012
8276
8001
8270
8040
8213
8125
8151
8207
8075
8260
8031
8281
8029
8249
8076
8190
8144
8126
8200
8082
8221
8082
8180
8120
8092
8179
8029
8250
7977
8293
7968
8285
8006
8222
8066
8142
8151
8076
8209
8050
8226
8072
8186
8121
8124
8195
8067
8244
8031
8237
8050
8207
8117
8144
8211
8067
8273
8022
8314
8008
8289
8040
8230
8101
8168
8186
8121
8222
8089
8199
8110
8152
8168
8057
8222
7997
8273
7979
8264
8009
8220
8076
8143
8146
8055
8213
8016
8243
8023
8221
8055
8166
8125
8106
8197
8068
8222
8061
8186
8106
8124
8173
8051
8263
8010
8320
7989
8330
8037
8271
8094
8207
8183
8132
8225
8089
8244
8091
8196
8128
8121
8204
8058
8247
8016
8240
8024
8208
8087
8143
8165
8061
8228
8002
8277
7984
8277
8019
8219
8083
8157
8158
8093
8196
8076
8192
8100
8153
8161
8071
8232
8016
8295
7995
8297
8008
8254
8069
8195
8167
8126
8237
8062
8264
8053
8252
8083
8189
8142
8118
8206
8063
8221
8042
8191
8075
8137
8153
8046
8229
7989
8290
7965
8288
7986
8240
8049
8182
8135
8109
8192
8070
8202
8070
8177
8117
8111
8190
8047
8242
8004
8269
8018
8253
8075
8196
8173
8132
8255
8056
8304
8030
8303
8054
8262
8107
8192
8183
8114
8208
8082
8209
8093
8153
8147
8070
8213
8007
8280
7975
8291
7974
8243
8025
8186
8117
8115
8192
8054
8221
8038
8222
8074
8175
8134
8101
8201
8050
8224
8038
8221
8076
8168
8152
8094
8240
8027
8305
8014
8332
8022
8292
8068
8215
8149
8152
8205
8106
8227
8100
8192
8117
8117
8186
8038
8233
7992
8279
7996
8246
8035
8190
8126
8115
8193
8033
8242
8002
8255
8021
8221
8078
8156
8142
8091
8197
8070
8208
8084
8168
8135
8110
8220
8037
8287
7999
8326
8005
8317
8054
8232
8123
8159
8194
8102
8237
8081
8248
8096
8182
8143
8108
8213
8057
8244
8020
8222
8040
8178
8123
8114
8203
8024
8257
7978
8282
7970
8233
8007
8171
8069
8101
8144
8072
8186
8076
8184
8116
8122
8184
8049
8241
7999
8293
7997
8295
8045
8241
8131
8177
8216
8104
8255
8049
8286
8062
8256
8117
8191
8181
8116
8211
8064
8215
8059
8172
8112
8110
8190
8029
8262
7980
8301
7968
8284
8007
8220
8073
8148
8154
8077
8195
8055
8204
8076
8170
8140
8104
8212
8045
8263
8022
8255
8058
8226
8128
8164
8214
8087
8280
8036
8310
8028
8296
8064
8239
8142
8177
8198
8108
8230
8086
8188
8098
8110
8161
8036
8232
7991
8272
7967
8273
7989
8210
8058
8146
8154
8076
8214
8038
8249
8042
8214
8078
8145
8140
8085
8200
8043
8212
8044
8187
8110
8138
8187
8064
8273
8013
8335
8009
8327
8032
8264
8093
8191
8170
8114
8219
8088
8227
8097
8182
8137
8097
8192
8022
8247
7993
8249
8010
8210
8062
8150
8157
8067
8225
8013
8273
8008
8266
8035
8207
8096
8128
8147
8074
8182
8064
8192
8093
8143
8168
8070
8246
8017
8303
8003
8325
8028
8280
8090
8202
8164
8132
8230
8080
8267
8077
8249
8112
8178
8168
8095
8208
8037
8219
8012
8189
8048
8126
8144
8054
8231
8003
8297
7982
8299
8002
8250
8066
8171
8129
8095
8174
8070
8189
8075
8174
8149
8099
8207
8043
8271
8012
8295
8020
8254
8053
8181
8148
8112
8226
8047
8290
8040
8290
8065
8233
8125
8167
8178
8098
8209
8068
8195
8087
8156
8153
8077
8235
8017
8288
7972
8296
7973
8254
8031
8191
8125
8123
8192
8075
8223
8059
8211
8091
8151
8167
8095
8218
8044
8251
8035
8232
8079
8176
8166
8120
8251
8051
8321
8012
8311
8026
8274
8069
8201
8145
8132
8192
8076
8183
8067
8143
8104
8090
8187
8026
8258
7992
8288
7986
8264
8038
8199
8124
8123
8192
8045
8243
8023
8254
8036
8207
8100
8158
8178
8091
8224
8061
8207
8073
8168
8146
8101
8221
8033
8306
8009
8345
8014
8307
8058
8227
8120
8153
8198
8095
8231
8081
8214
8094
8136
8140
8070
8200
8015
8251
8021
8245
8053
8194
8124
8115
8208
8038
8267
7997
8294
8003
8244
8049
8186
8114
8122
8182
8075
8200
8078
8177
8136
8113
8202
8048
8274
8004
8308
8005
8307
8056
8240
8126
8153
8194
8077
8244
8043
8261
8066
8219
8112
8143
8180
8084
8228
8049
8216
8058
8181
8130
8112
8200
8026
8262
7978
8302
7966
8254
8008
8216
8087
8157
8177
8106
8225
8080
8208
8109
8161
8155
8072
8204
8006
8256
7998
8253
8034
8224
8124
8158
8209
8086
8269
8024
8301
8022
8273
8069
8210
8130
8131
8189
8085
8209
8075
8183
8112
8122
8181
8039
8252
8000
8303
7976
8292
8006
8227
8070
8154
8152
8084
8213
8048
8229
8057
8212
8112
8146
8188
8081
8235
8047
8237
8060
8211
8118
8147
8201
8066
8275
8016
8324
8007
8313
8029
8246
8096
8181
8169
8111
8204
8076
8205
8096
8164
8160
8083
8219
8021
8271
7993
8276
8006
8222
8081
8159
8168
8089
8229
8021
8264
8002
8232
8035
8191
8117
8130
8188
8079
8201
8065
8194
8098
8137
8179
8067
8261
8016
8316
7995
8318
8017
8273
8075
8193
8154
8127
8221
8074
8238
8076
8201
8102
8134
8172
8066
8230
8026
8242
8035
8219
8092
8158
8167
8084
8241
8011
8290
7986
8292
8020
8247
8076
8173
8151
8109
8198
8076
8205
8100
8173
8158
8094
8225
8036
8285
7992
8300
8016
8271
8090
8209
8162
8132
8233
8059
8261
8037
8265
8075
8199
8116
8116
8162
8060
8204
8046
8196
8083
8156
8161
8075
8227
8012
8298
7982
8307
7984
8257
8030
8169
8089
8093
8172
8065
8214
8075
8198
8108
8127
8167
8068
8225
8025
8259
8024
8240
8073
8193
8156
8117
8241
8047
8301
8019
8306
8037
8274
8093
8198
8155
8120
8194
8078
8197
8076
8157
8137
8093
8204
8031
8277
7992
8303
7995
8276
8041
8206
8116
8134
8194
8059
8224
8031
8238
8056
8191
8111
8122
8180
8072
8230
8051
8231
8084
8195
8155
8134
8239
8052
8316
8008
8328
8009
8290
8026
8202
8091
8141
8177
8089
8215
8080
8201
8111
8135
8169
8066
8224
8012
8266
8001
8245
8027
8193
8109
8116
8186
8040
8251
8012
8288
8027
8258
8066
8191
8126
8116
8185
8078
8207
8080
8181
8128
8120
8204
8046
8284
8003
8319
7999
8310
8032
8239
8110
8164
8183
8095
8237
8068
8254
8079
8203
8125
8127
8181
8070
8239
8038
8233
8050
8196
8115
8118
8192
8038
8253
7992
8297
7979
8277
8021
8219
8088
8158
8170
8100
8202
8081
8202
8110
8148
8170
8073
8234
8027
8299
8012
8297
8036
8248
8120
8172
8193
8092
8246
8038
8283
8038
8264
8080
8197
8133
8121
8190
8065
8202
8062
8180
8105
8130
8183
8044
8247
7988
8297
7970
8296
8006
8243
8072
8173
8150
8091
8196
8050
8213
8060
8183
8108
8114
8183
8060
8245
8033
8252
8046
8221
8111
8161
8201
8096
8277
8044
8325
8011
8304
8030
8234
8083
8160
8154
8097
8196
8068
8192
8088
8147
8150
8064
8217
8008
8283
7990
8290
8006
8248
8064
8174
8148
8097
8217
8039
8244
8026
8239
8066
8194
8133
8126
8214
8081
8235
8064
8221
8116
8165
8183
8080
8251
8029
8329
8001
8333
8029
8280
8073
8210
8152
8137
8209
8080
8216
8073
8163
8092
8103
8169
8054
8249
8019
8268
8030
8234
8067
8172
8150
8087
8208
8009
8260
7982
8264
8010
8230
8072
8174
8160
8112
8208
8081
8204
8096
8159
8158
8100
8230
8024
8302
8003
8321
8011
8289
8069
8225
8151
8142
8217
8077
8253
8062
8256
8085
8197
8137
8116
8201
8067
8220
8036
8197
8054
8160
8143
8087
8225
8011
8279
7970
8295
7988
8263
8036
8190
8116
8124
8182
8078
8205
8081
8189
8126
8135
8193
8072
8263
8034
8289
8024
8272
8071
8211
8150
8135
8224
8060
8265
8026
8289
8037
8262
8091
8183
8158
8104
8197
8064
8194
8067
8157
8137
8106
8212
8024
8278
7978
8297
7972
8271
8026
8218
8111
8141
8173
8072
8217
8042
8232
8067
8159
8113
8098
8192
8053
8246
8035
8238
8071
8206
8154
8136
8239
8060
8305
8015
8330
8018
8311
8073
8245
8143
8173
8199
8108
8221
8089
8198
8120
8146
8177
8053
8232
7989
8257
7971
8239
8003
8190
8080
8125
8172
8059
8240
8020
8264
8026
8228
8080
8176
8148
8115
8208
8077
8217
8075
8190
8134
8123
8211
8057
8287
8013
8325
8003
8316
8033
8249
8109
8186
8189
8122
8229
8075
8236
8089
8188
8130
8111
8191
8049
8252
8028
8243
8036
8205
8102
8135
8186
8048
8242
7992
8279
7988
8279
8031
8216
8101
8160
8174
8095
8202
8077
8188
8105
8143
8176
8075
8252
8026
8310
7997
8301
8032
8257
8102
8179
8171
8100
8222
8045
8264
8049
8248
8093
8183
8144
8100
8201
8058
8215
8054
8193
8116
8146
8186
8058
8248
7998
8302
7975
8295
8002
8244
8064
8172
8137
8095
8188
8068
8224
8092
8194
8136
8119
8207
8059
8271
8028
8281
8046
8242
8117
8190
8190
8105
8246
8018
8284
8002
8278
8050
8239
8104
8169
8168
8091
8195
8072
8181
8081
8137
8159
8070
8235
8014
8298
7989
8307
8000
8253
8058
8190
8145
8112
8209
8056
8224
8035
8215
8078
8168
8135
8092
8204
8052
8230
8054
8227
8087
8167
8169
8094
8262
8027
8317
7997
8315
8007
8268
8068
8204
8154
8134
8198
8083
8224
8091
8185
8130
8109
8192
8034
8252
8005
8280
8009
8247
8057
8181
8143
8107
8216
8032
8260
8010
8274
8030
8211
8080
8157
8152
8099
8206
8077
8208
8100
8176
8169
8095
8240
8036
8308
8001
8327
8011
8302
8059
8228
8143
8155
8218
8098
8246
8067
8225
8082
8147
8120
8077
8188
8023
8216
8017
8222
8059
8170
8135
8092
8215
8017
8264
7988
8291
7993
8266
8047
8197
8127
8118
8183
8085
8210
8086
8192
8127
8125
8202
8061
8268
8018
8304
8017
8300
8062
8222
8138
8145
8208
8074
8264
8044
8282
8055
8229
8096
8163
8163
8093
8188
8052
8198
8066
8166
8139
8101
8210
8030
8287
7991
8315
7983
8295
8030
8227
8110
8145
8173
8083
8217
8059
8209
8085
8171
8147
8101
8220
8049
8269
8032
8261
8076
8219
8150
8146
8222
8063
8276
8006
8305
8011
8291
8060
8214
8120
8135
8183
8086
8209
8076
8175
8112
8111
8181
8040
8242
7988
8285
7979
8269
8022
8230
8107
8157
8190
8081
8226
8022
8226
8022
8192
8070
8132
8142
8086
8213
8074
8241
8085
8199
8132
8129
8192
8043
8279
8005
8327
8001
8319
8050
8259
8124
8188
8182
8105
8214
8079
8222
8093
8151
8136
8089
8210
8036
8259
8007
8254
8033
8206
8102
8138
8180
8062
8249
8017
8289
8005
8263
8044
8205
8115
8153
8191
8099
8225
8079
8202
8120
8150
8194
8076
8270
8027
8331
8017
8328
8035
8258
8092
8181
8178
8121
8239
8065
8265
8059
8224
8099
8146
8152
8081
8208
8043
8226
8051
8201
8107
8136
8181
8051
8249
7993
8301
7986
8294
8012
8240
8073
8164
8136
8093
8183
8062
8181
8076
8149
8132
8092
8220
8047
8283
8026
8297
8036
8250
8097
8187
8182
8101
8240
8033
8286
8038
8290
8064
8220
8116
8142
8182
8082
8194
8066
8194
8098
8138
8166
8058
8236
8001
8290
7967
8297
7993
8250
8052
8196
8140
8123
8201
8062
8226
8059
8210
8089
8131
8140
8076
8215
8050
8265
8051
8243
8110
8192
8194
8116
8271
8040
8319
8016
8327
8034
8285
8087
8190
8130
8098
8175
8064
8182
8077
8161
8128
8087
8202
8032
8271
7996
8293
8005
8251
8054
8190
8139
8109
8208
8043
8252
8023
8255
8043
8198
8097
8138
8156
8078
8206
8056
8210
8093
8162
8170
8109
8258
8056
8332
8007
8326
8004
8290
8051
8217
8140
8154
8204
8094
8231
8071
8203
8089
8142
8164
8077
8218
8037
8256
8014
8219
8048
8164
8123
8094
8211
8030
8268
7994
8290
8007
8264
8067
8200
8142
8129
8197
8090
8206
8087
8169
8141
8126
8224
8062
8300
8016
8322
8015
8302
8058
8232
8134
8155
8201
8074
8258
8056
8266
8064
8220
8124
8141
8179
8075
8224
8047
8207
8066
8165
8137
8109
8210
8021
8272
7980
8309
7981
8282
8010
8195
8075
8135
8172
8087
8219
8085
8214
8110
8159
8173
8089
8252
8041
8288
8029
8276
8071
8231
8144
8154
8215
8069
8275
8021
8300
8033
8281
8067
8211
8130
8129
8187
8077
8199
8071
8180
8116
8132
8196
8049
8264
7998
8309
7989
8292
8021
8237
8098
8160
8164
8084
8215
8036
8223
8041
8186
8090
8121
8159
8073
8237
8055
8241
8076
8224
8147
8155
8228
8077
8289
8019
8329
8005
8309
8039
8253
8103
8178
8175
8106
8210
8085
8185
8093
8143
8156
8077
8224
8028
8266
7988
8256
8005
8215
8085
8141
8163
8060
8233
8022
8266
8015
8249
8055
8198
8126
8132
8192
8086
8230
8076
8188
8098
8127
8182
8056
8271
8026
8329
8004
8324
8024
8266
8095
8196
8175
8137
8228
8079
8254
8078
8208
8110
8132
8170
8065
8214
8022
8224
8020
8191
8064
8126
8146
8046
8219
7991
8282
7985
8288
8006
8239
8083
8171
8158
8100
8193
8076
8198
8094
8167
8164
8101
8240
8061
8311
8030
8326
8036
8281
8096
8201
8167
8122
8244
8070
8288
8053
8269
8074
8199
8114
8120
8173
8063
8202
8054
8194
8092
8154
8170
8071
8241
8011
8300
7981
8313
7998
8257
8044
8179
8119
8111
8184
8066
8214
8078
8200
8115
8140
8186
8087
8263
8042
8290
8047
8264
8100
8206
8185
8135
8251
8043
8295
7999
8296
8027
8249
8078
8182
8143
8107
8185
8065
8188
8078
8159
8148
8099
8221
8031
8274
7977
8290
7976
8245
8023
8191
8101
8107
8182
8049
8242
8044
8257
8074
8201
8123
8123
8189
8073
8238
8066
8230
8105
8198
8175
8128
8252
8057
8322
8013
8333
8017
8312
8067
8235
8136
8156
8187
8096
8220
8066
8167
8083
8115
8162
8065
8235
8020
8276
8008
8249
8039
8185
8115
8115
8200
8041
8258
8013
8281
8017
8235
8064
8189
8137
8118
8195
8073
8206
8082
8187
8151
8137
8225
8064
8306
8019
8334
8013
8309
8041
8247
8128
8173
8208
8101
8245
8060
8244
8062
8181
8104
8102
8156
8046
8227
8037
8224
8055
8183
8123
8113
8199
8033
8264
7989
8302
7980
8280
8026
8215
8096
8155
8171
8099
8200
8077
8193
8109
8152
8184
8081
8263
8041
8316
8037
8310
8067
8259
8139
8177
8216
8104
8267
8049
8287
8036
8255
8074
8177
8119
8104
8183
8062
8198
8060
8180
8120
8118
8178
8031
8241
7974
8290
7965
8290
8005
8236
8067
8161
8152
8093
8218
8065
8237
8075
8189
8117
8127
8196
8074
8259
8050
8283
8074
8246
8143
8174
8211
8084
8270
8025
8323
8019
8304
8038
8229
8086
8164
8168
8087
8188
8062
8182
8093
8142
8159
8070
8217
8004
8268
7968
8271
7994
8226
8067
8169
8155
8093
8218
8037
8257
8030
8244
8076
8197
8134
8121
8200
8076
8240
8076
8219
8131
8164
8201
8098
8286
8036
8335
8011
8330
8020
8274
8084
8201
8157
8130
8205
8080
8215
8067
8182
8109
8118
8185
8054
8244
8021
8267
8024
8226
8074
8163
8155
8087
8229
8016
8279
7991
8272
8012
8228
8078
8163
8150
8095
8193
8073
8199
8106
8171
8177
8113
8258
8057
8323
8020
8330
8022
8277
8062
8207
8151
8140
8223
8084
8259
8064
8256
8084
8180
8130
8108
8188
8051
8211
8032
8202
8073
8152
8150
8075
8226
8024
8306
7991
8310
8005
8261
8042
8198
8131
8131
8187
8081
8207
8069
8161
8102
8113
8187
8061
8274
8041
8310
8041
8279
8080
8218
8156
8135
8229
8065
8299
8040
8297
8042
8257
8085
8171
8133
8092
8174
8064
8196
8080
8165
8142
8095
8215
8022
8280
7978
8301
7985
8270
8022
8203
8106
8130
8178
8071
8221
8048
8230
8077
8183
8134
8113
8202
8070
8253
8059
8250
8085
8210
8169
8148
8250
8068
8313
8021
8329
8021
8301
8060
8217
8123
8144
8178
8087
8200
8077
8186
8108
8126
8189
8064
8245
8014
8289
8001
8268
8035
8216
8118
8136
8182
8053
8227
7995
8227
7997
8204
8064
8149
8125
8099
8198
8070
8224
8086
8195
8152
8145
8236
8068
8309
8014
8328
7997
8310
8035
8257
8124
8184
8183
8104
8227
8064
8225
8077
8156
8120
8103
8189
8046
8249
8032
8244
8044
8203
8118
8139
8190
8055
8254
7993
8289
7983
8277
8039
8228
8113
8161
8177
8087
8194
8069
8196
8117
8153
8193
8088
8278
8042
8324
8021
8319
8038
8244
8105
8176
8188
8112
8242
8055
8271
8048
8242
8075
8162
8134
8089
8186
8049
8214
8055
8190
8110
8123
8184
8045
8254
7996
8300
7974
8302
8010
8247
8076
8174
8154
8123
8226
8082
8236
8093
8197
8161
8132
8227
8078
8295
8054
8302
8065
8260
8115
8164
8174
8070
8233
8014
8290
8014
8288
8050
8239
8103
8157
8166
8094
8194
8062
8181
8080
8116
8147
8050
8211
7992
8280
7979
8302
8004
8256
8070
8187
8144
8113
8213
8058
8244
8059
8232
8091
8183
8153
8113
8217
8066
8259
8072
8232
8124
8180
8192
8110
8269
8038
8329
8007
8326
8031
8287
8080
8206
8152
8120
8196
8070
8188
8070
8156
8115
8101
8195
8039
8249
7990
8264
7997
8239
8055
8179
8145
8101
8214
8036
8264
8016
8270
8029
8221
8099
8160
8162
8092
8204
8080
8224
8110
8193
8193
8130
8265
8049
8328
8012
8330
8020
8303
8064
8223
8144
8146
8200
8079
8239
8062
8223
8091
8157
8132
8086
8198
8038
8226
8038
8225
8075
8179
8155
8107
8233
8027
8292
7990
8298
7994
8253
8041
8183
8106
8111
8179
8071
8188
8088
8184
8137
8125
8221
8064
8284
8034
8316
8026
8286
8065
8227
8143
8142
8230
8085
8273
8038
8278
8046
8221
8083
8138
8143
8081
8185
8053
8204
8071
8166
8137
8090
8207
8021
8267
7979
8312
7987
8292
8033
8220
8107
8150
8186
8088
8225
8071
8229
8088
8172
8148
8107
8223
8059
8274
8047
8263
8077
8212
8153
8141
8231
8064
8302
8026
8328
8028
8279
8056
8208
8115
8129
8178
8082
8190
8074
8174
8122
8119
8192
8043
8243
7982
8281
7976
8257
8021
8212
8108
8150
8187
8075
8239
8052
8265
8045
8217
8087
8139
8149
8085
8222
8057
8229
8085
8215
8162
8150
8231
8069
8298
8006
8327
7998
8315
8047
8260
8118
8180
8178
8097
8213
8068
8194
8076
8145
8136
8092
8213
8031
8262
8022
8253
8038
8218
8109
8146
8184
8064
8254
8013
8288
8006
8275
8050
8206
8104
8120
8147
8062
8183
8079
8198
8129
8156
8205
8078
8286
8029
8326
8014
8326
8047
8267
8117
8195
8192
8115
8235
8063
8250
8043
8195
8076
8128
8138
8066
8197
8028
8217
8046
8193
8103
8130
8182
8047
8251
8000
8299
7983
8300
8019
8243
8078
8176
8147
8101
8204
8079
8207
8095
8175
8161
8111
8240
8064
8301
8037
8312
8055
8269
8125
8200
8200
8125
8266
8051
8294
8026
8271
8053
8206
8108
8133
8170
8083
8190
8061
8185
8089
8132
8159
8048
8234
8006
8296
7977
8296
7994
8248
8052
8184
8142
8109
8205
8057
8226
8060
8209
8098
8163
8178
8100
8244
8073
8296
8089
8262
8133
8197
8200
8111
8265
8035
8311
8007
8319
8026
8259
8077
8189
8147
8110
8198
8081
8204
8085
8158
8144
8093
8208
8030
8275
7987
8274
7996
8243
8045
8186
8141
8103
8215
8042
8259
8029
8266
8054
8210
8110
8134
8161
8091
8234
8085
8236
8110
8184
8186
8114
8254
8035
8315
7991
8326
8011
8309
8077
8239
8149
8154
8205
8088
8227
8060
8199
8089
8124
8128
8053
8202
8008
8229
8008
8213
8053
8169
8139
8106
8215
8022
8267
7990
8288
8012
8251
8066
8196
8142
8112
8187
8083
8212
8094
8185
8169
8132
8234
8066
8308
8032
8329
8024
8303
8054
8226
8140
8159
8213
8077
8254
8048
8260
8049
8197
8091
8127
8176
8075
8224
8054
8204
8068
8161
8134
8102
8224
8040
8305
8005
8329
8003
8296
8037
8220
8114
8144
8177
8085
8209
8067
8197
8098
8162
8176
8096
8238
8047
8290
8044
8292
8065
8212
8139
8143
8217
8072
8291
8032
8305
8027
8264
8061
8189
8126
8112
8174
8069
8175
8064
8165
8109
8102
8200
8045
8263
7994
8304
7984
8287
8017
8224
8097
8152
8181
8088
8237
8051
8246
8059
8199
8111
8142
8196
8082
8250
8071
8250
8081
8214
8151
8141
8223
8054
8280
8011
8323
8012
8309
8047
8237
8099
8164
8163
8088
8191
8060
8179
8094
8142
8161
8071
8220
8026
8277
8007
8269
8042
8226
8106
8143
8176
8058
8233
8004
8262
8002
8247
8060
8189
8119
8129
8203
8091
8231
8094
8216
8149
8161
8221
8084
8300
8029
8329
8007
8321
8036
8271
8113
8194
8168
8115
8210
8049
8225
8063
8203
8112
8126
8181
8069
8227
8019
8225
8034
8212
8110
8138
8179
8053
8251
8003
8296
7985
8289
8016
8227
8078
8167
8160
8103
8202
8084
8205
8112
8167
8180
8106
8258
8059
8316
8026
8323
8036
8258
8102
8183
8174
8108
8240
8054
8287
8044
8258
8056
8189
8118
8115
8182
8071
8209
8053
8187
8087
8126
8163
8053
8247
8006
8302
7978
8313
8005
8257
8062
8189
8149
8128
8208
8075
8224
8069
8196
8123
8144
8195
8083
8271
8054
8282
8047
8250
8112
8187
8186
8117
8262
8043
8319
8016
8304
8031
8241
8077
8168
8145
8094
8190
8075
8195
8087
8156
8155
8081
8208
8019
8271
7981
8295
8002
8259
8058
8193
8136
8109
8204
8052
8252
8051
8256
8075
8203
8133
8127
8199
8082
8255
8081
8244
8134
8191
8187
8106
8253
8029
8314
7997
8325
8019
8292
8067
8207
8130
8121
8179
8069
8202
8065
8169
8105
8125
8179
8062
8242
8017
8262
8014
8239
8060
8186
8141
8102
8214
8027
8263
8001
8287
8022
8233
8079
8177
8136
8110
8203
8090
8208
8113
8193
8178
8148
8260
8072
8323
8027
8339
8024
8305
8073
8238
8144
8151
8203
8071
8227
8036
8222
8047
8156
8103
8097
8177
8047
8237
8043
8217
8071
8179
8145
8107
8225
8026
8287
7983
8300
7991
8277
8048
8219
8124
8141
8171
8072
8194
8064
8182
8109
8154
8214
8107
8297
8059
8320
8043
8302
8077
8238
8154
8157
8231
8066
8267
8022
8281
8025
8244
8069
8169
8132
8094
8175
8066
8202
8072
8176
8133
8096
8200
8025
8274
7982
8301
7982
8288
8030
8223
8101
8150
8180
8088
8231
8064
8239
8085
8190
8146
8137
8228
8094
8271
8067
8265
8084
8218
8153
8148
8227
8064
8287
8011
8308
7999
8289
8036
8214
8088
8135
8159
8075
8197
8074
8184
8108
8121
8171
8061
8239
8008
8281
7989
8264
8023
8221
8101
8145
8179
8066
8245
8038
8284
8048
8248
8084
8184
8139
8102
8190
8073
8225
8089
8215
8157
8158
8227
8069
8294
8023
8338
8010
8330
8034
8256
8103
8175
8164
8090
8203
8057
8204
8071
8161
8116
8105
8190
8044
8240
8011
8234
8035
8205
8111
8143
8185
8061
8256
8009
8296
8007
8287
8035
8221
8084
8149
8159
8092
8205
8085
8208
8128
8168
8209
8109
8285
8047
8320
8007
8310
8033
8260
8111
8198
8189
8119
8244
8053
8263
8029
8216
8066
8150
8127
8096
8196
8054
8211
8056
8189
8092
8129
8183
8056
8256
8001
8307
7986
8298
8012
8256
8078
8188
8160
8114
8204
8076
8214
8092
8192
8143
8133
8228
8084
8297
8063
8318
8069
8266
8130
8199
8197
8110
8259
8036
8296
8006
8268
8010
8191
8056
8123
8137
8075
8177
8071
8194
8098
8151
8161
8065
8230
8011
8286
7979
8295
7999
8260
8066
8195
8149
8121
8222
8075
8247
8052
8234
8089
8172
8148
8109
8218
8068
8260
8076
8244
8124
8180
8181
8100
8267
8032
8325
8009
8326
8016
8265
8065
8192
8141
8109
8175
8065
8183
8064
8153
8118
8106
8200
8052
8264
8015
8288
8015
8257
8067
8181
8144
8108
8218
8040
8270
8021
8277
8041
8228
8089
8155
8161
8096
8203
8088
8227
8124
8196
8195
8133
8273
8056
8326
8016
8336
8027
8309
8067
8220
8133
8137
8198
8072
8217
8048
8222
8075
8154
8143
8093
8196
8031
8215
8007
8207
8060
8172
8152
8101
8221
8017
8285
7993
8307
8014
8277
8059
8207
8141
8147
8199
8101
8235
8096
8206
8156
8147
8230
8079
8296
8030
8313
8020
8283
8058
8225
8150
8151
8214
8075
8260
8029
8261
8038
8211
8084
8143
8142
8086
8202
8057
8203
8071
8158
8129
8089
8209
8029
8281
7984
8308
7986
8287
8033
8225
8117
8158
8177
8078
8218
8070
8226
8100
8180
8167
8117
8247
8078
8290
8055
8273
8079
8221
8151
8141
8225
8068
8288
8018
8309
8012
8276
8049
8199
8100
8118
8169
8077
8188
8068
8175
8108
8114
8183
8048
8246
7992
8286
7985
8274
8017
8218
8098
8149
8181
8080
8242
8049
8263
8050
8226
8094
8164
8168
8105
8240
8091
8264
8103
8225
8163
8159
8229
8073
8305
8026
8345
8012
8314
8036
8244
8090
8170
8163
8089
8186
8055
8181
8068
8143
8126
8076
8197
8018
8244
7999
8247
8029
8213
8104
8138
8180
8064
8249
8017
8286
8005
8274
8048
8218
8120
8163
8196
8109
8235
8107
8227
8159
8179
8221
8084
8279
8029
8331
8016
8331
8043
8261
8085
8168
8153
8074
8205
8035
8227
8043
8206
8087
8146
8149
8086
8211
8047
8224
8050
8204
8106
8142
8188
8066
8253
8010
8310
7987
8299
8011
8229
8054
8149
8122
8080
8181
8074
8231
8112
8199
8186
8149
8254
8074
8306
8043
8311
8043
8266
8116
8196
8187
8114
8249
8045
8287
8020
8266
8041
8196
8093
8128
8172
8086
8190
8068
8197
8097
8142
8168
8071
8241
8005
8300
7990
8309
8004
8265
8066
8196
8145
8123
8213
8074
8250
8072
8222
8119
8176
8192
8116
8267
8083
8286
8074
8247
8112
8180
8185
8104
8267
8046
8320
8003
8308
8012
8244
8058
8173
8131
8090
8174
8063
8175
8078
8163
8123
8085
8201
8027
8263
7993
8288
8011
8258
8055
8193
8143
8116
8229
8058
8260
8026
8259
8053
8208
8112
8162
8183
8109
8241
8086
8242
8132
8190
8192
8119
8256
8044
8319
8016
8335
8017
8291
8052
8202
8119
8124
8173
8059
8205
8056
8196
8094
8133
8146
8071
8211
8026
8257
8026
8237
8063
8167
8125
8083
8197
8021
8269
7995
8301
8014
8267
8066
8193
8141
8127
8203
8089
8238
8110
8204
8178
8147
8235
8073
8312
8031
8329
8020
8313
8077
8243
8146
8154
8204
8072
8232
8034
8244
8049
8192
8086
8120
8154
8063
8193
8045
8213
8069
8172
8142
8112
8215
8023
8269
7980
8304
7986
8290
8037
8229
8114
8154
8182
8088
8221
8090
8217
8117
8176
8189
8114
8274
8066
8298
8037
8271
8068
8225
8147
8155
8237
8081
8281
8031
8302
8019
8262
8056
8189
8123
8113
8178
8066
8177
8058
8156
8105
8100
8186
8042
8261
7990
8306
7992
8295
8023
8231
8109
8161
8177
8077
8224
8050
8244
8057
8196
8103
8131
8192
8097
8265
8088
8280
8097
8228
8156
8167
8243
8082
8312
8018
8332
8010
8306
8031
8226
8081
8145
8144
8074
8187
8060
8178
8092
8150
8163
8074
8227
8027
8275
8000
8267
8036
8228
8096
8139
8171
8067
8237
8024
8284
8029
8265
8064
8199
8134
8138
8206
8112
8247
8112
8230
8163
8172
8221
8088
8295
8026
8330
8006
8323
8019
8258
8100
8180
8162
8096
8210
8063
8239
8070
8202
8116
8135
8182
8072
8234
8032
8230
8029
8190
8071
8125
8165
8050
8244
7998
8296
7984
8292
8020
8237
8085
8163
8159
8102
8204
8080
8219
8124
8186
8195
8116
8257
8057
8314
8026
8319
8039
8267
8107
8180
8162
8103
8231
8038
8253
8018
8245
8056
8192
8121
8116
8179
8071
8215
8062
8194
8097
8135
8170
8061
8241
7998
8289
7967
8300
7997
8254
8062
8195
8145
8124
8198
8074
8230
8079
8209
8136
8163
8214
8106
8281
8062
8299
8058
8258
8120
8208
8201
8127
8276
8048
8309
8012
8297
8027
8241
8072
8169
8145
8091
8181
8061
8191
8081
8149
8145
8080
8212
8023
8276
7986
8292
7993
8248
8050
8185
8137
8114
8207
8049
8242
8026
8242
8060
8193
8127
8140
8215
8099
8267
8093
8245
8129
8197
8191
8119
8268
8052
8329
8013
8338
8015
8283
8041
8187
8092
8096
8160
8056
8199
8071
8186
8112
8128
8181
8068
8240
8018
8272
8018
8244
8065
8187
8144
8112
8222
8044
8271
8021
8294
8025
8232
8072
8175
8159
8112
8206
8097
8229
8128
8213
8193
8143
8250
8061
8317
8024
8348
8030
8306
8049
8213
8119
8123
8182
8053
8216
8028
8222
8052
8175
8114
8111
8188
8061
8238
8052
8240
8090
8203
8168
8124
8233
8035
8275
7986
8303
7986
8273
8034
8203
8101
8135
8174
8096
8219
8097
8214
8142
8181
8217
8104
8280
8046
8305
8032
8279
8068
8232
8136
8151
8206
8061
8251
8010
8253
8000
8211
8045
8157
8119
8095
8192
8072
8213
8084
8190
8144
8115
8207
8033
8258
7977
8290
7966
8269
8018
8224
8105
8160
8190
8107
8243
8082
8258
8099
8203
8161
8140
8231
8102
8291
8072
8278
8082
8222
8151
8151
8223
8065
8273
8001
8308
7996
8271
8017
8205
8081
8136
8163
8091
8207
8093
8205
8110
8124
8162
8046
8217
7997
8268
7980
8264
8019
8228
8102
8157
8172
8064
8227
8017
8236
8004
8205
8043
8158
8127
8119
8234
8113
8276
8122
8233
8155
8146
8196
8070
8324
8083
8401
8058
8363
8054
8257
8083
8168
8155
8097
8222
8076
8234
8080
8182
8125
8112
8197
8048
8237
8009
8233
8033
8219
8113
8155
8172
8049
8228
7970
8238
7952
8237
7998
8210
8095
8160
8160
8082
8188
8069
8226
8207
8278
8302
8182
8319
8065
8338
8036
8342
8055
8283
8106
8201
8186
8135
8240
8048
8235
8021
8211
8068
8173
8139
8107
8192
8033
8170
8019
8171
8090
8149
8176
8045
8213
7954
8261
7968
8324
8029
8255
8059
8158
8113
8072
8175
8101
8283
8164
8266
8208
8183
8269
8108
8306
8067
8309
8054
8253
8101
8179
8163
8067
8201
7996
8250
7980
8240
7993
8199
8082
8166
8175
8101
8197
8066
8186
8077
8141
8147
8085
8267
8048
8315
7999
8316
8005
8244
8030
8159
8106
8101
8203
8069
8266
8070
8238
8056
8134
8109
8076
8172
8049
8279
8113
8281
8140
8185
8172
8106
8266
8066
8353
8021
8310
7991
8245
8063
8211
8161
8166
8223
8101
8228
8088
8178
8118
8099
8183
8047
8260
8006
8275
8002
8233
8039
8173
8129
8094
8204
8036
8254
7985
8234
8009
8187
8057
8160
8221
8199
8308
8154
8289
8162
8220
8207
8148
8279
8066
8333
8017
8338
8013
8291
8038
8191
8093
8081
8137
8008
8129
7954
8134
8037
8129
8122
8100
8213
8057
8265
8066
8288
8137
8222
8167
8109
8215
8019
8286
7997
8311
8014
8278
8068
8234
8179
8187
8217
8112
8248
8118
8223
8156
8157
8235
8085
8292
8029
8312
8022
8287
8072
8250
8166
8160
8220
8085
8268
8027
8246
8015
8190
8056
8117
8123
8059
8170
8046
8196
8067
8178
8162
8112
8201
8010
8244
7961
8296
7955
8233
7989
8212
8111
8153
8167
8062
8199
8040
8195
8105
8218
8228
8203
8316
8119
8323
8077
8295
8083
8210
8139
8131
8195
8016
8222
7969
8267
7952
8215
8014
8195
8095
8112
8181
8095
8228
8119
8238
8182
8184
8248
8104
8296
8021
8299
7971
8259
8014
8214
8105
8173
8189
8078
8238
8048
8274
8058
8218
8084
8145
8157
8095
8211
8066
8247
8123
8255
8182
8154
8205
8039
8256
7973
8289
7970
8285
8035
8265
8119
8181
8183
8103
8205
8057
8173
8056
8125
8103
8057
8180
8025
8272
8019
8262
8030
8194
8094
8130
8167
8067
8264
8040
8304
8024
8284
8059
8214
8115
8129
8169
8073
8189
8058
8165
8094
8138
8202
8076
8296
8041
8314
7976
8269
7979
8223
8076
8200
8204
8142
8263
8088
8276
8066
8199
8068
8118
8133
8065
8209
8055
8243
8069
8236
8162
8198
8248
8124
8297
8035
8333
7997
8305
8010
8216
8018
8097
8104
8102
8212
8113
8267
8159
8256
8255
8213
8303
8097
8316
8053
8331
8090
8313
8148
8192
8154
8044
8165
7936
8176
7962
8270
8082
8242
8129
8157
8186
8087
8181
8050
8179
8087
8135
8159
8046
8207
7970
8257
7939
8269
8000
8311
8144
8238
8168
8120
8198
8059
8221
8050
8203
8095
8149
8163
8062
8200
8024
8210
7988
8166
8046
8123
8151
8096
8265
8045
8363
8096
8403
8095
8332
8153
8260
8203
8158
8214
8094
8229
8099
8168
8138
8080
8191
8011
8257
7986
8280
8013
8254
8068
8182
8134
8096
8193
8018
8240
8025
8261
8040
8188
8085
8117
8150
8094
8251
8094
8249
8164
8240
8237
8154
8315
8063
8321
7986
8303
7982
8244
8005
8143
8060
8054
8132
8005
8192
8085
8263
8154
8191
8199
8121
8280
8073
8289
8048
8245
8063
8157
8117
8048
8196
8026
8289
7992
8283
8005
8255
8082
8198
8178
8207
8311
8174
8288
8147
8229
8195
8164
8263
8083
8315
8031
8326
8018
8274
8053
8209
8121
8107
8182
8030
8206
7992
8183
8009
8158
8068
8079
8114
8022
8154
8030
8209
8097
8177
8151
8110
8240
8042
8297
7984
8318
8002
8294
8026
8192
8091
8136
8192
8104
8230
8101
8237
8128
8177
8198
8110
8279
8089
8333
8081
8303
8082
8207
8120
8096
8181
8014
8233
7988
8286
8001
8234
8046
8167
8098
8095
8129
7993
8098
7999
8111
8102
8117
8215
8067
8317
8024
8335
8010
8311
8059
8250
8125
8163
8211
8120
8263
8078
8294
8125
8292
8210
8244
8304
8201
8341
8150
8323
8152
8256
8194
8177
8264
8075
8305
8008
8320
8002
8289
8035
8223
8088
8137
8144
8055
8146
8022
8140
8062
8079
8074
7983
8122
7917
8143
7900
8185
8029
8251
8142
8170
8247
8159
8358
8106
8343
8066
8291
8097
8221
8162
8140
8202
8075
8193
8045
8146
8088
8079
8142
7998
8217
7941
8249
7935
8257
8025
8307
8184
8262
8246
8181
8314
8133
8281
8089
8206
8126
8136
8178
8076
8249
8033
8221
8033
8197
8117
8129
8174
8032
8227
7982
8287
7960
8269
8000
8171
8035
8121
8151
8132
8284
8160
8273
8159
8210
8260
8208
8348
8111
8353
8054
8335
8035
8223
8048
8122
8147
8093
8235
8027
8266
8024
8237
8047
8151
8089
8075
8141
8028
8186
8066
8218
8141
8152
8187
8067
8280
8033
8332
7996
8322
8039
8280
8094
8211
8177
8129
8211
8061
8220
8072
8204
8150
8190
8244
8114
8277
8063
8301
8083
8262
8135
8179
8197
8098
8251
8003
8249
7942
8228
7958
8165
8013
8096
8071
8010
8096
8003
8130
8029
8088
8147
8123
8298
8089
8348
8042
8326
8020
8254
8065
8184
8160
8128
8233
8061
8267
8049
8262
8087
8223
8170
8170
8253
8121
8280
8111
8249
8135
8180
8199
8111
8270
8033
8315
7975
8276
7961
8233
8017
8156
8132
8169
8248
8107
8225
8071
8169
8103
8130
8209
8082
8267
8036
8287
8034
8248
8093
8186
8160
8094
8210
8008
8242
7974
8261
8012
8232
8084
8184
8158
8109
8206
8077
8195
8093
8171
8175
8150
8308
8094
8332
8033
8345
8020
8276
8048
8195
8101
8087
8166
8052
8242
8057
8251
8106
8258
8200
8174
8236
8095
8263
8066
8222
8074
8145
8133
8096
8234
8022
8303
8009
8322
8003
8262
8039
8203
8121
8149
8206
8109
8244
8120
8232
8169
8182
8233
8088
8269
8018
8278
8002
8234
8025
8170
8109
8080
8168
8007
8231
8015
8299
8037
8219
8036
8116
8086
8061
8165
8062
8197
8087
8204
8194
8144
8245
8065
8320
8021
8341
8024
8311
8047
8212
8092
8112
8156
8079
8245
8085
8275
8121
8234
8195
8174
8253
8099
8263
8033
8211
8044
8185
8157
8176
8309
8123
8326
8012
8303
7981
8262
8028
8199
8093
8134
8171
8072
8176
8060
8159
8098
8119
8176
8053
8257
8016
8295
8005
8263
8018
8188
8052
8059
8106
7994
8206
8020
8288
8100
8341
8203
8270
8220
8154
8245
8107
8263
8115
8229
8182
8167
8245
8077
8298
7998
8309
7970
8277
7992
8204
8060
8143
8157
8076
8193
8054
8227
8082
8171
8122
8113
8204
8048
8244
8021
8242
8042
8200
8113
8132
8200
8066
8278
8027
8317
8009
8291
8045
8216
8084
8121
8130
8059
8180
8104
8264
8213
8247
8268
8156
8325
8074
8350
8037
8310
8011
8196
8020
8068
8080
8004
8193
8028
8261
8048
8213
8068
8162
8137
8098
8209
8082
8263
8104
8247
8172
8175
8188
8020
8206
7940
8254
7931
8253
7971
8209
8042
8167
8165
8172
8326
8195
8323
8208
8314
8271
8224
8293
8103
8307
8057
8317
8068
8251
8096
8140
8177
8115
8273
8033
8285
8009
8280
8010
8178
8038
8076
8108
8079
8205
8102
8242
8148
8182
8188
8078
8229
8000
8276
7965
8278
7972
8230
8034
8156
8117
8096
8213
8084
8277
8073
8268
8115
8200
8173
8112
8215
8067
8245
8060
8228
8126
8185
8197
8079
8241
8013
8297
7988
8311
8009
8255
8067
8203
8157
8114
8188
8069
8178
8053
8137
8094
8082
8180
8032
8247
7977
8232
7976
8213
8045
8181
8174
8139
8259
8083
8321
8063
8316
8070
8269
8154
8217
8231
8149
8264
8123
8245
8136
8190
8187
8091
8234
8018
8286
7975
8295
7983
8279
8044
8180
8088
8076
8156
8019
8177
8024
8188
8068
8169
8142
8084
8187
8025
8221
8019
8223
8076
8177
8155
8120
8273
8092
8347
8031
8327
8018
8298
8098
8245
8171
8176
8226
8119
8248
8116
8211
8162
8149
8223
8075
8276
8021
8303
8001
8251
8018
8170
8073
8079
8162
8037
8244
8016
8258
8042
8211
8075
8134
8141
8073
8184
8058
8221
8100
8203
8173
8125
8231
8042
8288
7978
8290
7969
8265
8012
8201
8112
8154
8175
8095
8274
8122
8287
8157
8240
8229
8187
8298
8102
8297
8061
8298
8109
8238
8160
8141
8212
8043
8254
7976
8255
7966
8222
8009
8162
8064
8081
8118
8034
8153
8046
8172
8121
8139
8198
8057
8270
8006
8304
8009
8326
8083
8287
8149
8187
8209
8111
8268
8068
8275
8061
8216
8081
8130
8132
8059
8175
8051
8256
8151
8272
8210
8184
8236
8065
8282
8008
8325
7991
8299
8012
8222
8072
8141
8151
8089
8209
8080
8228
8101
8191
8180
8109
8225
8044
8264
8011
8243
8022
8205
8111
8159
8193
8063
8238
7971
8224
7970
8269
8081
8290
8211
8237
8250
8141
8262
8123
8245
8153
8165
8207
8089
8297
8047
8328
7992
8297
8001
8223
8052
8145
8132
8063
8192
8026
8216
8034
8200
8088
8147
8148
8082
8200
8032
8211
8034
8173
8053
8068
8106
7987
8190
7970
8324
8022
8333
8056
8297
8125
8203
8192
8163
8247
8136
8283
8154
8229
8203
8152
8260
8075
8314
8043
8318
8058
8259
8106
8179
8156
8066
8197
7988
8232
7986
8239
8010
8178
8078
8113
8134
8046
8169
8058
8200
8088
8142
8171
8077
8251
8022
8327
8011
8336
8036
8310
8109
8225
8172
8153
8240
8104
8282
8099
8254
8133
8188
8184
8084
8222
8043
8239
8054
8250
8124
8199
8187
8094
8233
8012
8290
7984
8289
7996
8230
8050
8172
8117
8098
8174
8062
8176
8079
8154
8127
8078
8193
8008
8229
7970
8267
7984
8250
8061
8201
8146
8141
8262
8093
8291
8042
8274
8070
8229
8136
8171
8203
8100
8227
8067
8216
8128
8263
8275
8170
8260
8023
8293
7981
8314
7993
8293
8062
8230
8140
8135
8175
8064
8204
8041
8158
8050
8104
8121
8052
8202
8015
8257
8027
8231
8044
8166
8129
8139
8302
8141
8365
8080
8368
8076
8316
8106
8239
8177
8172
8221
8116
8246
8118
8207
8163
8142
8221
8049
8281
8009
8311
8008
8293
8043
8212
8097
8106
8149
8020
8197
7998
8199
8029
8228
8142
8175
8195
8098
8240
8054
8218
8068
8172
8130
8104
8211
8034
8268
7972
8296
7987
8294
8035
8234
8130
8184
8210
8124
8258
8107
8246
8128
8174
8179
8090
8234
8032
8277
8015
8243
8025
8193
8107
8122
8173
8019
8209
7969
8249
7992
8260
8065
8215
8126
8113
8154
8058
8174
8050
8149
8094
8105
8189
8039
8263
7999
8295
7964
8254
7993
8236
8116
8188
8211
8165
8318
8155
8343
8158
8302
8194
8205
8231
8120
8277
8077
8268
8080
8209
8128
8120
8189
8051
8267
8007
8331
8024
8324
8049
8239
8089
8161
8154
8081
8189
8064
8168
8076
8122
8134
8052
8190
7988
8238
7972
8256
8022
8243
8128
8189
8193
8069
8230
8020
8285
8030
8281
8087
8256
8202
8206
8260
8141
8279
8122
8245
8166
8181
8222
8085
8277
8013
8312
7976
8286
7975
8210
8026
8122
8092
8041
8169
8040
8200
8034
8163
8081
8107
8176
8089
8272
8083
8290
8076
8252
8135
8191
8193
8094
8267
8030
8325
8019
8321
8046
8255
8097
8194
8182
8142
8234
8106
8233
8117
8183
8177
8111
8252
8054
8286
7957
8228
7956
8207
8045
8185
8176
8125
8237
8040
8252
8019
8239
8044
8177
8106
8124
8187
8080
8211
8049
8181
8062
8113
8133
8056
8245
8028
8324
8013
8331
8017
8278
8085
8230
8169
8156
8239
8103
8261
8105
8227
8144
8175
8216
8108
8276
8048
8278
8039
8231
8057
8167
8162
8113
8246
8041
8299
8019
8296
8021
8237
8072
8181
8154
8120
8202
8082
8205
8104
8178
8163
8091
8203
8007
8261
7964
8281
7996
8266
8041
8181
8110
8108
8188
8046
8234
8042
8250
8074
8206
8148
8174
8245
8134
8289
8109
8265
8134
8212
8196
8132
8243
8032
8313
8010
8330
8011
8289
8039
8197
8116
8128
8171
8067
8204
8068
8196
8109
8123
8164
8049
8219
7998
8256
8010
8260
8076
8236
8167
8137
8215
8045
8272
8022
8297
8043
8284
8105
8225
8185
8162
8231
8103
8219
8085
8184
8143
8104
8208
8039
8294
8014
8325
8006
8278
8030
8209
8092
8125
8168
8059
8225
8061
8253
8079
8204
8130
8128
8189
8072
8244
8047
8229
8058
8177
8131
8108
8195
8019
8255
7972
8288
7988
8296
8059
8256
8171
8218
8235
8149
8261
8125
8248
8137
8170
8197
8090
8274
8059
8333
8031
8290
8051
8225
8111
8136
8180
8063
8238
8010
8261
8005
8220
8050
8160
8110
8093
8170
8052
8191
8060
8190
8139
8137
8213
8044
8257
7982
8300
7983
8316
8045
8272
8115
8185
8176
8115
8220
8072
8253
8092
8209
8155
8166
8233
8103
8289
8082
8301
8083
8226
8128
8154
8195
8049
8237
7981
8275
7965
8258
8014
8202
8068
8144
8164
8100
8207
8081
8190
8092
8127
8144
8030
8181
7970
8240
7965
8287
8009
8224
8062
8154
8155
8093
8263
8089
8347
8132
8337
8170
8276
8231
8207
8288
8148
8304
8128
8242
8145
8155
8193
8053
8245
7980
8276
7942
8253
7938
8184
8010
8143
8130
8122
8236
8120
8244
8065
8150
8092
8096
8175
8065
8288
8067
8303
8075
8275
8132
8198
8194
8108
8266
8050
8314
8029
8314
8062
8278
8127
8210
8198
8126
8234
8105
8224
8117
8177
8182
8107
8258
8041
8293
7977
8272
7968
8223
8019
8145
8106
8090
8190
8027
8211
8009
8202
8045
8163
8124
8105
8186
8052
8222
8054
8206
8070
8135
8156
8097
8263
8034
8313
7991
8317
8023
8296
8098
8249
8200
8190
8255
8138
8270
8119
8218
8143
8134
8207
8076
8283
8036
8295
8028
8252
8053
8170
8123
8100
8209
8033
8262
8005
8274
8030
8230
8081
8159
8123
8078
8189
8067
8204
8092
8175
8154
8089
8212
8015
8278
7980
8306
7987
8266
8047
8225
8137
8156
8203
8091
8256
8091
8279
8118
8219
8185
8149
8255
8097
8275
8067
8239
8061
8169
8129
8070
8180
7980
8241
7963
8310
8026
8302
8056
8207
8129
8151
8190
8089
8215
8092
8203
8132
8156
8210
8070
8272
8027
8300
8022
8286
8065
8222
8134
8141
8201
8058
8265
8037
8300
8061
8271
8114
8202
8173
8120
8217
8089
8238
8099
8201
8168
8147
8229
8044
8274
7980
8304
7975
8284
8024
8223
8092
8143
8166
8079
8208
8056
8220
8072
8155
8136
8109
8192
8027
8211
8003
8224
8050
8220
8142
8137
8207
8045
8275
8019
8332
8043
8324
8095
8267
8174
8201
8215
8126
8242
8102
8216
8162
8182
8235
8110
8290
8035
8305
8004
8286
8013
8208
8073
8121
8151
8053
8216
8025
8248
8024
8206
8071
8151
8133
8087
8193
8051
8199
8041
8160
8092
8131
8212
8056
8259
7986
8293
7960
8275
7984
8218
8077
8206
8221
8171
8279
8121
8273
8120
8211
8186
8168
8271
8092
8299
8048
8297
8074
8263
8138
8169
8194
8069
8245
8001
8278
7997
8268
8029
8210
8090
8127
8155
8080
8185
8067
8188
8105
8142
8175
8061
8243
8023
8307
8001
8303
8011
8248
8075
8176
8163
8115
8245
8078
8276
8090
8283
8140
8206
8177
8119
8242
8074
8253
8071
8229
8143
8167
8176
8038
8224
7982
8297
7981
8313
8017
8257
8074
8177
8143
8103
8191
8064
8188
8073
8168
8131
8106
8214
8045
8279
8028
8298
8046
8254
8100
8189
8175
8108
8247
8050
8298
8025
8295
8065
8245
8133
8185
8193
8119
8238
8093
8216
8117
8176
8186
8080
8237
8009
8275
7952
8275
7988
8255
8060
8195
8139
8118
8194
8045
8227
8053
8230
8095
8171
8151
8098
8217
8059
8244
8042
8209
8070
8140
8137
8049
8204
7977
8253
7975
8298
8013
8289
8116
8273
8248
8240
8288
8149
8259
8123
8212
8179
8156
8250
8088
8290
8030
8313
8025
8266
8057
8192
8139
8117
8207
8028
8233
7991
8236
8012
8191
8069
8127
8136
8065
8180
8057
8202
8091
8177
8171
8126
8254
8040
8296
7979
8300
7969
8256
8029
8213
8126
8156
8204
8100
8274
8108
8261
8140
8209
8205
8134
8268
8090
8301
8070
8263
8075
8194
8141
8098
8205
8014
8262
7991
8292
7993
8245
8037
8175
8097
8099
8154
8076
8188
8086
8183
8119
8108
8197
8043
8270
8004
8310
8010
8301
8063
8231
8131
8155
8206
8071
8265
8069
8296
8082
8250
8122
8186
8203
8118
8247
8075
8241
8101
8197
8150
8121
8225
8039
8287
7988
8310
7989
8295
8027
8218
8091
8148
8174
8091
8216
8081
8226
8092
8164
8155
8091
8213
8024
8253
8018
8258
8051
8213
8130
8139
8202
8050
8268
8028
8312
8038
8300
8083
8230
8150
8158
8200
8108
8237
8110
8209
8148
8156
8213
8070
8275
8162
8063
8165
8139
8082
8213
8018
8258
8003
8277
8032
8219
8077
8157
8160
8095
8196
8071
8200
8089
8151
8151
8084
8238
8033
8308
8006
8327
8011
8274
8058
8218
8154
8149
8238
8090
8276
8070
8244
8088
8184
8150
8126
8246
8098
8290
8079
8253
8112
8189
8166
8096
8223
8014
8284
7980
8292
7993
8256
8045
8198
8127
8123
8184
8080
8203
8080
8189
8120
8116
8191
8048
8254
8002
8283
8019
8272
8061
8214
8144
8134
8223
8072
8276
8045
8297
8072
8269
8118
8192
8184
8130
8242
8106
8238
8113
8202
8180
8128
8229
8032
8279
7975
8304
7981
8287
8026
8210
8108
8134
8171
8063
8205
8043
8205
8078
8172
8140
8107
8205
8051
8247
8031
8234
8057
8192
8148
8127
8228
8049
8287
8012
8325
8019
8307
8070
8234
8158
8178
8210
8114
8245
8107
8215
8153
8163
8221
8079
8276
8018
8298
7997
8273
8024
8203
8096
8128
8174
8057
8228
8021
8248
8030
8209
8078
8141
8137
8088
8203
8064
8227
8088
8198
8140
8125
8211
8045
8278
8003
8323
7993
8305
8037
8250
8123
8189
8202
8138
8242
8097
8250
8113
8197
8174
8130
8232
8078
8281
8040
8266
8057
8213
8109
8127
8176
8031
8240
7987
8278
7988
8261
8032
8196
8090
8123
8165
8080
8186
8073
8190
8116
8147
8191
8072
8262
8023
8307
7995
8308
8031
8249
8099
8178
8177
8116
8254
8075
8291
8075
8247
8116
8192
8188
8131
8257
8095
8277
8107
8248
8159
8163
8199
8052
8245
7975
8284
7967
8290
8008
8235
8073
8174
8154
8097
8189
8063
8189
8083
8165
8128
8091
8200
8028
8257
8014
8274
8034
8243
8111
8183
8190
8103
8263
8058
8320
8051
8308
8082
8251
8150
8192
8207
8116
8245
8104
8218
8126
8167
8185
8075
8247
8019
8308
7988
8303
7998
8238
8049
8173
8140
8107
8205
8053
8231
8048
8212
8089
8151
8149
8087
8213
8047
8233
8050
8223
8109
8162
8175
8086
8246
8010
8301
7993
8307
8015
8267
8085
8209
8172
8146
8219
8101
8231
8116
8201
8175
8148
8240
8072
8290
8020
8295
8015
8238
8055
8170
8147
8105
8223
8037
8259
8017
8270
8055
8223
8115
8160
8185
8104
8229
8074
8213
8102
8172
8178
8090
8238
8021
8294
7975
8297
7993
8277
8056
8211
8151
8147
8220
8104
8267
8091
8244
8113
8185
8185
8103
8253
8070
8276
8055
8247
8082
8185
8146
8098
8217
8012
8281
7983
8287
7988
8240
8043
8179
8108
8111
8184
8079
8205
8086
8178
8129
8113
8205
8048
8280
8008
8305
8006
8269
8046
8215
8144
8153
8226
8088
8276
8061
8291
8084
8254
8136
8181
8202
8114
8247
8097
8243
8110
8192
8163
8117
8230
8023
8283
7969
8296
7968
8257
8009
8196
8104
8139
8182
8084
8216
8074
8228
8100
8143
8165
8087
8227
8038
8263
8029
8249
8059
8196
8134
8125
8217
8048
8279
8017
8314
8032
8298
8096
8229
8164
8159
8209
8113
8249
8114
8212
8169
8152
8225
8060
8274
7994
8287
7975
8262
8020
8225
8109
8147
8177
8069
8234
8041
8262
8059
8215
8114
8151
8186
8091
8226
8063
8231
8074
8195
8146
8124
8209
8033
8262
7986
8307
7991
8297
8038
8244
8120
8177
8183
8114
8228
8099
8238
8136
8187
8191
8117
8258
8045
8272
8014
8257
8023
8199
8097
8131
8183
8056
8242
8005
8277
8010
8255
8043
8186
8106
8116
8172
8076
8203
8075
8185
8120
8139
8203
8062
8266
8009
8319
8000
8311
8021
8251
8103
8191
8191
8129
8254
8093
8275
8077
8218
8119
8163
8199
8106
8264
8070
8260
8059
8203
8112
8132
8175
8049
8253
7996
8302
7992
8292
8021
8237
8087
8163
8162
8104
8216
8096
8215
8113
8174
8167
8091
8229
8042
8288
8014
8287
8029
8238
8092
8167
8176
8090
8246
8052
8295
8053
8290
8086
8230
8153
8143
8200
8101
8240
8101
8223
8131
8161
8192
8072
8247
7997
8289
7966
8293
7990
8248
8062
8182
8147
8117
8203
8057
8216
8054
8193
8106
8133
8174
8072
8234
8037
8243
8040
8220
8099
8154
8167
8071
8241
8020
8301
8002
8316
8044
8282
8114
8205
8182
8132
8218
8108
8243
8128
8196
8188
8109
8230
8035
8285
7999
8285
7989
8225
8035
8155
8126
8096
8210
8036
8248
8035
8257
8064
8208
8145
8168
8213
8112
8266
8105
8248
8149
8194
8208
8122
8271
8036
8317
7995
8326
8018
8274
8077
8217
8162
8161
8225
8105
8256
8096
8222
8137
8168
8205
8097
8260
8044
8277
8036
8233
8068
8163
8137
8083
8209
8008
8263
7989
8277
7999
8224
8058
8158
8117
8094
8168
8060
8183
8074
8149
8133
8078
8212
8031
8287
7991
8299
8002
8268
8055
8215
8140
8145
8215
8077
8257
8052
8252
8075
8218
8151
8151
8216
8099
8260
8082
8240
8115
8182
8168
8104
8237
8018
8296
7985
8304
7988
8266
8036
8201
8114
8134
8174
8079
8217
8080
8203
8111
8130
8173
8073
8253
8039
8286
8028
8267
8071
8203
8139
8123
8230
8054
8294
8032
8310
8049
8273
8086
8196
8162
8127
8215
8102
8245
8118
8210
8178
8136
8230
8050
8290
7996
8316
8005
8306
8047
8225
8104
8128
8169
8064
8220
8034
8223
8054
8177
8111
8116
8188
8068
8245
8051
8234
8076
8187
8137
8115
8217
8031
8274
7996
8309
8006
8297
8063
8252
8155
8188
8217
8121
8243
8107
8213
8133
8170
8204
8088
8265
8043
8295
8007
8265
8027
8209
8114
8142
8193
8055
8243
8019
8278
8025
8246
8067
8177
8135
8116
8206
8087
8223
8089
8194
8145
8135
8219
8051
8270
7994
8312
7985
8304
8032
8240
8107
8182
8197
8131
8257
8089
8260
8105
8207
8144
8136
8207
8076
8262
8052
8263
8075
8221
8125
8124
8184
8037
8249
7991
8297
7989
8273
8017
8211
8082
8144
8155
8087
8201
8084
8197
8111
8146
8175
8071
8245
8023
8289
8000
8279
8018
8235
8098
8167
8177
8103
8240
8047
8288
8054
8260
8093
8201
8166
8133
8220
8096
8251
8093
8223
8147
8160
8213
8067
8266
8001
8310
7979
8307
8015
8244
8073
8178
8155
8104
8209
8074
8237
8095
8205
8142
8133
8206
8068
8262
8035
8266
8037
8215
8087
8137
8169
8081
8255
8024
8312
8017
8308
8059
8251
8123
8193
8197
8128
8243
8109
8226
8124
8170
8186
8083
8242
8014
8288
7989
8290
8000
8243
8057
8174
8146
8103
8212
8034
8232
8037
8243
8082
8183
8145
8114
8206
8073
8224
8045
8203
8093
8152
8176
8063
8240
8003
8309
7999
8316
8032
8275
8085
8213
8158
8143
8208
8088
8236
8098
8209
8170
8163
8233
8087
8280
8032
8287
8028
8248
8091
8183
8163
8092
8230
8023
8278
8009
8281
8034
8228
8092
8166
8164
8104
8201
8081
8209
8101
8165
8173
8091
8242
8024
8296
7988
8316
8004
8279
8061
8223
8159
8151
8229
8093
8272
8079
8254
8104
8200
8175
8136
8243
8077
8261
8060
8232
8092
8173
8159
8085
8231
8023
8292
7993
8304
7998
8261
8047
8189
8122
8104
8171
8068
8198
8069
8175
8118
8117
8197
8052
8258
8011
8287
8015
8262
8058
8207
8152
8135
8238
8076
8297
8051
8298
8063
8263
8114
8190
8187
8122
8242
8100
8237
8116
8189
8173
8115
8229
8028
8283
7973
8299
7986
8272
8029
8210
8111
8128
8178
8063
8209
8049
8224
8080
8155
8139
8100
8218
8062
8262
8044
8243
8075
8185
8133
8107
8212
8041
8284
8012
8316
8028
8307
8068
8231
8147
8163
8204
8107
8238
8116
8215
8160
8156
8216
8077
8272
8018
8297
7996
8256
8033
8209
8114
8135
8193
8056
8239
8021
8251
8032
8218
8092
8166
8165
8093
8204
8062
8213
8076
8185
8146
8128
8226
8049
8295
8002
8325
8000
8308
8047
8252
8140
8197
8211
8132
8244
8089
8240
8098
8182
8168
8116
8226
8053
8266
8030
8249
8041
8195
8110
8123
8190
8047
8260
8000
8296
7996
8267
8038
8204
8103
8131
8174
8095
8203
8084
8198
8126
8152
8201
8068
8272
8014
8303
7993
8299
8033
8244
8113
8175
8188
8108
8248
8057
8269
8055
8245
8108
8181
8188
8124
8247
8074
8237
8077
8205
8123
8126
8196
8048
8257
7993
8312
7989
8301
8017
8237
8081
8172
8166
8112
8216
8093
8232
8106
8187
8167
8122
8234
8060
8281
8029
8282
8041
8231
8106
8167
8188
8083
8263
8036
8315
8040
8300
8070
8238
8130
8166
8192
8109
8238
8103
8221
8143
8168
8200
8077
8246
8003
8290
7979
8294
8001
8242
8054
8167
8146
8102
8210
8052
8235
8049
8201
8085
8148
8149
8084
8213
8056
8240
8056
8219
8109
8158
8179
8068
8247
8013
8315
8003
8318
8043
8284
8100
8207
8171
8141
8225
8107
8238
8116
8198
8168
8115
8224
8046
8275
8008
8276
8007
8226
8055
8163
8146
8092
8219
8035
8262
8016
8261
8040
8209
8100
8133
8176
8090
8222
8075
8204
8103
8148
8168
8078
8238
8012
8307
7995
8323
8008
8281
8066
8218
8164
8157
8226
8096
8264
8090
8252
8128
8198
8201
8116
8252
8063
8275
8059
8249
8112
8185
8181
8107
8247
8032
8292
7989
8291
8006
8247
8063
8187
8140
8120
8191
8086
8194
8090
8180
8151
8115
8226
8060
8285
8009
8295
8005
8256
8054
8200
8150
8131
8233
8076
8290
8053
8283
8070
8229
8128
8171
8205
8110
8246
8087
8235
8110
8183
8168
8104
8231
8027
8297
7984
8313
7987
8267
8036
8204
8118
8127
8165
8055
8193
8043
8181
8086
8137
8163
8088
8231
8039
8267
8026
8232
8049
8173
8132
8113
8213
8047
8295
8014
8315
8036
8298
8088
8215
8160
8153
8214
8110
8246
8121
8207
8165
8139
8219
8047
8268
7991
8292
7984
8260
8032
8205
8116
8130
8188
8050
8234
8028
8262
8067
8216
8126
8166
8204
8104
8252
8073
8234
8095
8186
8149
8121
8234
8042
8300
7997
8325
8007
8301
8056
8243
8137
8170
8204
8118
8233
8103
8239
8132
8186
8193
8094
8239
8027
8269
8013
8248
8037
8194
8118
8118
8199
8042
8259
8010
8288
8017
8266
8064
8189
8121
8122
8191
8081
8211
8085
8185
8142
8131
8209
8054
8259
7993
8303
7990
8297
8029
8240
8119
8177
8209
8103
8249
8073
8264
8086
8232
8140
8174
8214
8108
8252
8065
8238
8072
8191
8120
8115
8196
8034
8260
7992
8310
7986
8290
8022
8223
8100
8165
8175
8108
8222
8100
8228
8113
8172
8178
8100
8245
8036
8283
8002
8255
8015
8208
8092
8146
8201
8110
8284
8061
8312
8041
8272
8068
8206
8157
8149
8221
8115
8243
8094
8202
8130
8147
8199
8059
8264
8004
8310
7987
8299
8001
8240
8075
8170
8159
8111
8215
8066
8230
8064
8197
8116
8136
8184
8073
8246
8042
8247
8050
8211
8109
8148
8192
8072
8263
8022
8318
8021
8323
8055
8264
8108
8185
8181
8127
8218
8102
8244
8125
8183
8184
8097
8238
8034
8284
7994
8279
8011
8237
8068
8170
8150
8092
8219
8033
8251
8022
8255
8062
8194
8125
8121
8194
8087
8232
8073
8203
8103
8150
8171
8057
8228
7993
8304
7984
8322
8020
8279
8089
8208
8159
8141
8222
8094
8261
8102
8240
8144
8171
8213
8100
8271
8056
8290
8050
8242
8094
8165
8161
8089
8238
8024
8301
8008
8295
8032
8241
8083
8174
8148
8107
8193
8072
8193
8086
8152
8150
8085
8222
8027
8287
7998
8304
8007
8265
8068
8214
8160
8146
8237
8076
8280
8059
8260
8092
8217
8144
8148
8217
8095
8247
8072
8222
8097
8169
8158
8076
8233
8009
8291
7976
8297
7994
8261
8037
8193
8129
8130
8177
8074
8218
8076
8187
8113
8133
8192
8081
8265
8028
8284
8032
8251
8059
8188
8152
8116
8235
8058
8299
8024
8303
8041
8266
8090
8192
8174
8131
8224
8109
8244
8114
8191
8168
8122
8236
8054
8301
7999
8316
7989
8255
8013
8188
8103
8119
8173
8053
8207
8024
8210
8051
8175
8110
8104
8185
8076
8259
8066
8248
8087
8192
8160
8129
8244
8053
8319
8021
8339
8035
8315
8074
8251
8150
8161
8191
8103
8224
8104
8216
8133
8155
8197
8084
8263
8024
8285
8008
8259
8041
8205
8123
8129
8194
8056
8251
8012
8276
8020
8233
8076
8175
8139
8104
8196
8075
8213
8088
8182
8153
8121
8216
8037
8282
8003
8327
7995
8317
8046
8251
8140
8182
8200
8106
8243
8082
8253
8096
8213
8163
8140
8218
8082
8261
8049
8240
8059
8195
8123
8119
8203
8045
8263
7994
8304
7995
8277
8022
8208
8094
8142
8161
8082
8200
8080
8196
8130
8155
8187
8075
8249
8014
8291
8003
8271
8033
8225
8112
8159
8194
8105
8273
8074
8303
8061
8263
8100
8198
8176
8144
8227
8100
8252
8098
8218
8155
8157
8218
8062
8272
8003
8315
7973
8298
8016
8245
8088
8172
8162
8096
8208
8065
8211
8070
8177
8121
8115
8199
8053
8257
8033
8255
8039
8218
8112
8155
8192
8095
8272
8032
8320
8021
8301
8058
8243
8110
8177
8185
8118
8243
8101
8214
8121
8158
8184
8072
8236
8000
8283
7987
8285
8004
8233
8069
8158
8153
8094
8215
8040
8245
8039
8239
8079
8177
8137
8109
8208
8075
8247
8081
8219
8125
8153
8190
8069
8267
8006
8309
7982
8301
8009
8260
8089
8205
8177
8142
8218
8092
8238
8100
8203
8146
8130
8215
8067
8262
8020
8263
8024
8234
8073
8169
8159
8091
8223
8019
8276
7992
8270
8033
8233
8104
8179
8168
8102
8208
8077
8206
8107
8167
8175
8093
8243
8023
8306
7997
8315
8014
8275
8076
8216
8164
8150
8239
8086
8267
8068
8250
8102
8198
8170
8123
8222
8074
8256
8062
8229
8105
8172
8175
8096
8246
8019
8305
7991
8311
8005
8257
8047
8193
8138
8116
8192
8074
8204
8086
8181
8129
8120
8209
8061
8271
8013
8286
8026
8267
8087
8210
8176
8139
8253
8085
8308
8057
8311
8070
8269
8130
8203
8206
8127
8245
8085
8216
8094
8157
8139
8067
8204
7997
8263
7968
8295
7983
8267
8039
8210
8125
8137
8192
8071
8225
8051
8211
8078
8152
8134
8091
8205
8057
8255
8043
8234
8075
8185
8156
8122
8233
8053
8317
8023
8325
8022
8282
8068
8219
8154
8160
8207
8111
8236
8101
8202
8131
8123
8199
8047
8258
8004
8298
8003
8265
8037
8205
8119
8134
8198
8057
8248
8024
8255
8043
8223
8098
8167
8153
8105
8228
8085
8233
8097
8190
8159
8118
8231
8044
8299
8007
8342
8022
8325
8065
8261
8144
8178
8201
8109
8243
8091
8252
8122
8198
8168
8113
8225
8054
8265
8027
8239
8047
8198
8127
8134
8206
8041
8270
8002
8293
8002
8276
8049
8203
8109
8121
8167
8069
8176
8061
8162
8106
8112
8180
8050
8249
8004
8304
8008
8306
8057
8255
8140
8184
8214
8109
8255
8056
8274
8064
8244
8108
8178
8187
8119
8242
8077
8237
8079
8191
8125
8126
8202
8033
8249
7969
8283
7958
8275
8001
8212
8070
8152
8161
8090
8201
8071
8207
8092
8170
8161
8100
8215
8043
8270
8027
8281
8052
8248
8137
8181
8223
8107
8291
8058
8336
8053
8315
8086
8248
8150
8178
8216
8119
8242
8101
8216
8140
8150
8196
8069
8256
8006
8307
7984
8295
8018
8245
8069
8163
8157
8081
8211
8042
8230
8052
8213
8099
8147
8165
8090
8226
8053
8234
8058
8207
8116
8158
8203
8078
8279
8037
8336
8021
8330
8041
8258
8087
8194
8171
8123
8220
8098
8236
8113
8186
8163
8103
8215
8044
8268
8003
8275
8015
8233
8084
8160
8157
8071
8225
8024
8257
8006
8259
8037
8203
8102
8134
8184
8095
8232
8090
8213
8108
8152
8179
8075
8251
8019
8307
7990
8326
8029
8289
8082
8218
8169
8146
8231
8097
8272
8096
8259
8136
8184
8189
8102
8238
8054
8257
8042
8226
8081
8165
8162
8086
8238
8012
8292
7992
8290
8009
8246
8067
8183
8145
8117
8191
8080
8207
8095
8174
8157
8116
8235
8048
8272
8003
8303
8017
8267
8075
8208
8156
8128
8231
8059
8283
8048
8288
8069
8229
8134
8164
8193
8097
8234
8078
8220
8086
8161
8157
8072
8226
8006
8286
7973
8296
7982
8259
8044
8205
8127
8137
8193
8075
8218
8068
8208
8104
8165
8177
8094
8248
8051
8275
8040
8251
8083
8201
8155
8133
8245
8053
8309
8028
8323
8043
8286
8094
8228
8174
8168
8227
8106
8232
8110
8192
8152
8116
8218
8053
8291
8004
8298
7989
8261
8027
8198
8104
8122
8181
8049
8234
8032
8251
8052
8203
8109
8138
8179
8089
8237
8062
8219
8079
8180
8147
8118
8228
8045
8301
8011
8337
8026
8320
8063
8242
8130
8164
8187
8090
8221
8090
8217
8115
8171
8188
8103
8255
8043
8274
8019
8256
8043
8193
8119
8123
8201
8051
8260
8005
8284
8013
8259
8058
8192
8119
8121
8189
8084
8215
8095
8193
8143
8133
8205
8058
8276
8006
8313
8009
8310
8055
8263
8132
8190
8206
8116
8250
8078
8276
8094
8243
8135
8164
8195
8086
8235
8043
8231
8060
8186
8116
8114
8197
8041
8262
7991
8305
7981
8292
8034
8243
8117
8169
8177
8110
8221
8087
8215
8116
8173
8183
8093
8227
8015
8254
7983
8260
8025
8232
8122
8173
8210
8102
8273
8057
8306
8044
8281
8082
8218
8160
8150
8218
8103
8238
8094
8198
8129
8135
8192
8052
8258
7998
8307
7977
8295
8008
8239
8076
8165
8156
8097
8217
8070
8228
8070
8203
8115
8141
8189
8084
8254
8043
8250
8061
8219
8127
8148
8196
8074
8272
8027
8331
8017
8318
8040
8253
8105
8185
8188
8138
8230
8099
8225
8126
8171
8169
8085
8222
8014
8273
7982
8281
8006
8245
8087
8170
8158
8097
8228
8034
8254
8016
8246
8054
8187
8125
8124
8194
8076
8219
8071
8208
8121
8166
8202
8089
8268
8016
8322
7999
8333
8032
8283
8087
8214
8166
8137
8223
8094
8254
8105
8216
8135
8164
8204
8087
8256
8039
8271
8046
8229
8097
8166
8162
8082
8231
8010
8281
7990
8289
8024
8240
8080
8175
8151
8102
8202
8088
8205
8103
8170
8168
8098
8228
8031
8290
8006
8305
8016
8277
8089
8215
8166
8143
8228
8072
8274
8061
8274
8091
8216
8142
8131
8203
8072
8236
8060
8216
8085
8171
8175
8102
8245
8014
8298
7980
8306
7987
8259
8044
8193
8122
8123
8185
8076
8203
8069
8186
8112
8131
8190
8077
8261
8027
8289
8029
8253
8067
8203
8159
8145
8248
8063
8308
8038
8312
8047
8269
8102
8210
8183
8134
8216
8090
8219
8102
8175
8151
8089
8212
8031
8282
7993
8302
7987
8269
8030
8211
8115
8139
8189
8067
8232
8049
8240
8066
8190
8127
8127
8204
8083
8256
8050
8226
8078
8195
8163
8118
8240
8042
8312
8019
8334
8017
8309
8069
8239
8142
8162
8199
8116
8244
8110
8218
8138
8168
8200
8090
8259
8022
8286
8007
8261
8032
8195
8111
8123
8186
8050
8247
8017
8267
8010
8226
8065
8185
8158
8118
8215
8097
8231
8092
8189
8143
8126
8217
8055
8294
8019
8345
8023
8331
8064
8258
8133
8180
8194
8122
8251
8089
8266
8100
8200
8128
8119
8195
8061
8239
8025
8224
8042
8182
8113
8114
8192
8037
8263
7997
8299
8002
8283
8030
8216
8105
8146
8172
8094
8207
8082
8194
8117
8149
8183
8071
8248
8026
8309
8006
8311
8050
8257
8131
8186
8211
8113
8271
8056
8292
8060
8280
8116
8220
8178
8125
8211
8074
8226
8083
8208
8141
8150
8205
8051
8261
7978
8288
7965
8278
7994
8224
8065
8163
8156
8102
8208
8061
8227
8083
8188
8140
8121
8207
8060
8256
8026
8256
8050
8225
8121
8166
8206
8104
8291
8037
8324
8025
8309
8060
8249
8129
8191
8196
8125
8238
8102
8201
8100
8125
8157
8062
8229
8010
8289
7988
8295
8005
8235
8061
8163
8155
8100
8216
8037
8243
8042
8238
8075
8177
8149
8116
8211
8073
8244
8065
8208
8122
8159
8203
8083
8279
8033
8339
8009
8326
8027
8295
8091
8210
8176
8144
8227
8106
8246
8096
8199
8141
8126
8206
8056
8253
8013
8270
8026
8228
8072
8166
8161
8093
8226
8020
8282
7997
8274
8034
8230
8096
8165
8174
8110
8216
8085
8207
8104
8159
8165
8087
8244
8034
8318
8016
8332
8034
8300
8105
8226
8166
8141
8225
8079
8268
8080
8269
8112
8200
8177
8128
8218
8059
8242
8041
8212
8079
8149
8149
8071
8226
8004
8284
7964
8293
7987
8248
8045
8186
8134
8132
8192
8085
8209
8091
8187
8140
8122
8208
8059
8275
8025
8297
8021
8271
8073
8211
8158
8133
8237
8063
8294
8047
8312
8064
8261
8116
8184
8184
8117
8233
8088
8214
8096
8170
8161
8089
8225
8018
8284
7984
8307
7988
8274
8040
8210
8124
8134
8189
8080
8230
8059
8228
8090
8174
8145
8110
8215
8056
8249
8046
8239
8080
8188
8168
8126
8244
8067
8322
8029
8326
8019
8288
8071
8225
8154
8159
8199
8098
8209
8075
8173
8120
8110
8190
8053
8263
8010
8301
8008
8277
8047
8215
8125
8138
8202
8072
8265
8043
8282
8047
8220
8084
8145
8147
8098
8227
8081
8223
8080
8181
8143
8124
8224
8050
8313
8028
8353
8021
8319
8060
8254
8132
8179
8200
8111
8246
8085
8237
8099
8178
8157
8101
8214
8046
8254
8025
8241
8046
8199
8121
8121
8197
8049
8257
8001
8286
7993
8266
8042
8203
8110
8149
8187
8087
8193
8089
8196
8129
8137
8191
8059
8269
8012
8307
8011
8316
8056
8269
8142
8182
8192
8107
8258
8061
8286
8076
8248
8113
8169
8174
8102
8233
8066
8229
8077
8198
8133
8137
8206
8051
8275
8000
8311
7975
8291
8015
8235
8084
8170
8166
8102
8214
8076
8227
8096
8172
8154
8098
8215
8038
8271
8030
8285
8057
8243
8122
8172
8207
8095
8268
8036
8304
8029
8291
8068
8241
8142
8165
8199
8103
8230
8092
8202
8117
8146
8187
8066
8250
8006
8300
7987
8297
8003
8232
8058
8148
8135
8074
8197
8035
8224
8043
8211
8099
8163
8174
8093
8219
8054
8231
8062
8215
8117
8156
8205
8097
8283
8036
8341
8028
8338
8054
8298
8126
8218
8195
8155
8230
8106
8238
8110
8183
8161
8116
8220
8048
8276
8019
8290
8026
8239
8086
8163
8155
8088
8221
8021
8270
8011
8267
8046
8209
8105
8156
8182
8086
8205
8072
8205
8103
8155
8174
8081
8245
8029
8317
8007
8335
8030
8281
8079
8214
8166
8146
8225
8090
8261
8076
8233
8116
8170
8168
8076
8211
8034
8237
8032
8212
8074
8155
8149
8060
8221
8007
8284
7986
8299
8018
8254
8077
8200
8155
8126
8207
8095
8229
8100
8173
8147
8101
8213
8052
8297
8019
8321
8028
8291
8099
8224
8163
8149
8234
8070
8287
8048
8284
8077
8235
8125
8162
8191
8097
8228
8074
8213
8093
8166
8157
8088
8227
8013
8289
7983
8309
7994
8268
8039
8206
8114
8130
8174
8067
8216
8064
8211
8107
8162
8166
8082
8225
8041
8281
8055
8268
8100
8208
8169
8144
8247
8064
8325
8047
8330
8041
8293
8088
8218
8155
8138
8203
8094
8210
8088
8176
8134
8103
8198
8032
8270
7993
8300
7986
8270
8036
8221
8118
8140
8188
8060
8227
8024
8237
8044
8192
8099
8133
8179
8087
8235
8064
8232
8089
8195
8151
8132
8243
8065
8314
8020
8340
8021
8317
8052
8248
8141
8184
8208
8123
8257
8101
8233
8115
8171
8187
8101
8235
8036
8267
8001
8240
8024
8184
8092
8112
8182
8045
8250
8011
8280
8013
8261
8056
8199
8123
8128
8193
8091
8228
8085
8190
8133
8128
8209
8060
8279
8007
8312
8005
8322
8052
8267
8122
8186
8198
8125
8254
8077
8274
8085
8223
8132
8149
8182
8082
8229
8041
8228
8051
8194
8111
8130
8193
8050
8263
7993
8305
7987
8297
8022
8235
8090
8175
8161
8101
8208
8088
8218
8111
8167
8177
8094
8242
8050
8297
8020
8301
8049
8258
8125
8193
8206
8121
8275
8063
8306
8056
8295
8093
8227
8154
8149
8199
8084
8208
8067
8183
8104
8127
8178
8062
8253
8000
8297
7976
8302
7996
8239
8057
8173
8136
8097
8200
8054
8224
8071
8203
8111
8144
8181
8079
8242
8042
8272
8068
8233
8126
8180
8208
8106
8278
8045
8329
8023
8323
8044
8262
8106
8202
8178
8127
8222
8100
8215
8106
8172
8162
8095
8228
8032
8290
8008
8296
8006
8244
8057
8171
8142
8094
8208
8037
8250
8020
8247
8058
8200
8122
8131
8189
8082
8214
8063
8213
8101
8167
8174
8102
8257
8033
8331
8002
8326
8019
8280
8067
8213
8145
8147
8216
8097
8249
8092
8215
8124
8142
8175
8063
8236
8025
8261
8032
8248
8081
8185
8155
8097
8221
8028
8292
8006
8298
8028
8250
8075
8183
8148
8124
8206
8095
8212
8109
8192
8169
8124
8238
8052
8310
8022
8328
8010
8283
8053
8210
8132
8140
8206
8066
8242
8053
8257
8072
8199
8127
8135
8186
8062
8211
8045
8218
8078
8180
8150
8120
8252
8057
8310
7995
8307
7978
8254
8020
8197
8113
8152
8193
8093
8214
8079
8203
8113
8161
8204
8097
8269
8044
8293
8031
8270
8061
8220
8143
8125
8197
8037
8244
8009
8285
8036
8272
8101
8208
8169
8135
8209
8084
8228
8101
8196
8160
8129
8220
8037
8276
7999
8327
8003
8318
8064
8282
8199
8241
8243
8108
8231
8045
8227
8050
8151
8087
8088
8150
8033
8207
8040
8243
8089
8226
8188
8185
8265
8078
8304
8012
8327
8009
8302
8042
8228
8103
8154
8161
8082
8202
8077
8176
8093
8126
8169
8074
8260
8038
8309
8033
8291
8017
8214
8101
8139
8178
8066
8255
8042
8301
8060
8274
8081
8187
8144
8133
8221
8101
8248
8095
8206
8146
8154
8226
8087
8297
8040
8362
8043
8354
8056
8259
8079
8150
8138
8072
8188
8032
8198
8072
8189
8113
8121
8197
8070
8256
8040
8244
8036
8199
8101
8135
8189
8087
8314
8070
8353
8029
8299
8036
8227
8088
8150
8146
8082
8168
8044
8160
8090
8130
8154
8062
8225
7995
8273
7979
8291
8023
8242
8094
8187
8213
8161
8291
8083
8294
8072
8267
8084
8198
8160
8134
8236
8124
8278
8090
8203
8093
8132
8180
8055
8248
7992
8306
7995
8313
8002
8239
8050
8162
8127
8118
8225
8103
8260
8107
8213
8144
8145
8207
8073
8258
8014
8239
8012
8203
8081
8196
8208
8132
8318
8124
8378
8075
8343
8084
8284
8126
8216
8201
8115
8183
8034
8129
8030
8081
8091
8016
8153
7941
8208
7911
8250
8030
8310
8073
8195
8159
8137
8237
8068
8268
8062
8283
8130
8229
8179
8139
8212
8071
8243
8063
8210
8063
8134
8141
8058
8235
8023
8316
8020
8360
8088
8357
8129
8255
8205
8178
8209
8088
8229
8097
8191
8106
8097
8189
8068
8257
8002
8225
7955
8181
7992
8113
8059
8018
8150
7997
8239
7976
8271
8078
8343
8193
8282
8274
8216
8287
8128
8247
8097
8155
8145
8091
8272
8114
8384
8084
8392
8059
8327
8073
8223
8145
8163
8227
8103
8278
8097
8270
8103
8194
8142
8096
8153
7998
8163
7972
8159
8021
8142
8123
8061
8188
7988
8260
8000
8324
8016
8281
8048
8221
8157
8194
8258
8139
8262
8108
8207
8130
8130
8192
8046
8241
8000
8274
8000
8266
8058
8227
8144
8123
8179
8030
8243
8038
8300
8061
8263
8103
8187
8169
8110
8227
8093
8212
8056
8133
8081
8029
8136
7952
8213
7955
8304
8007
8315
8061
8271
8162
8192
8211
8100
8222
8042
8170
8065
8230
8227
8195
8275
8087
8278
8031
8234
8052
8195
8150
8124
8201
8028
8266
8007
8303
7989
8274
8072
8240
8103
8114
8172
8086
8185
8072
8187
8121
8142
8191
8062
8269
8044
8342
8044
8317
8048
8238
8121
8157
8183
8063
8222
8026
8263
8036
8225
8090
8181
8195
8145
8258
8087
8262
8114
8220
8142
8122
8195
8061
8311
8042
8354
8016
8327
8068
8315
8148
8192
8177
8102
8218
8081
8227
8083
8153
8127
8087
8199
8048
8258
8005
8230
8016
8187
8073
8092
8130
7996
8193
7971
8284
8026
8318
8082
8259
8155
8204
8247
8185
8296
8159
8279
8200
8212
8247
8108
8301
8038
8331
8009
8320
8036
8264
8091
8149
8123
8026
8165
7995
8194
8013
8212
8097
8169
8131
8071
8165
8013
8188
8033
8172
8078
8133
8220
8123
8320
8043
8337
8028
8364
8076
8308
8132
8218
8192
8147
8229
8099
8226
8077
8148
8123
8114
8236
8071
8291
8052
8310
8060
8277
8140
8215
8212
8130
8263
8030
8290
8008
8263
8024
8195
8073
8094
8093
8002
8104
7990
8130
8073
8124
8144
8046
8237
8008
8277
7962
8299
8003
8248
8036
8130
8046
8011
8119
7961
8120
7951
8104
8021
8171
8217
8154
8303
8150
8353
8169
8359
8270
8375
8425
8354
8496
8234
8482
8142
8437
8111
8336
8138
8242
8196
8166
8225
8097
8222
8087
8149
8120
8087
8187
8015
8225
7972
8242
7972
8209
8026
8146
8109
8046
8168
7986
8226
8001
8245
8022
8182
8072
8108
8115
8036
8140
7997
8150
8062
8155
8184
8115
8259
8043
8294
7968
8307
7988
8236
8012
8177
8126
8158
8230
8122
8289
8098
8235
8083
8133
8150
8094
8228
8061
8303
8093
8274
8107
8206
8189
8142
8259
8049
8305
8002
8314
8020
8278
8076
8201
8136
8101
8160
8050
8169
8082
8172
8129
8119
8225
8071
8298
8016
8306
8011
8280
8056
8215
8130
8133
8198
8051
8222
8011
8264
8060
8215
8108
8152
8172
8073
8166
8008
8147
8031
8131
8112
8115
8263
8075
8329
8021
8334
7999
8297
8052
8240
8136
8171
8207
8122
8276
8116
8246
8125
8179
8169
8100
8247
8052
8276
8060
8302
8109
8239
8164
8153
8233
8069
8322
8037
8313
8021
8272
8065
8208
8148
8137
8183
8065
8165
8051
8157
8108
8132
8221
8053
8252
7980
8269
7949
8224
7958
8149
8017
8053
8049
7935
8087
7888
8073
7916
8097
8000
8064
8147
8140
8332
8205
8439
8323
8439
8377
8372
8438
8246
8450
8139
8443
8079
8353
8070
8272
8135
8180
8176
8091
8189
8062
8199
8088
8135
8135
8067
8208
8039
8291
8030
8290
8041
8216
8100
8133
8160
8032
8204
7979
8261
8007
8267
8060
8201
8119
8129
8189
8087
8202
8077
8187
8113
8132
8193
8047
8247
7992
8301
7960
8257
7983
8226
8096
8188
8169
8060
8165
8011
8198
8017
8154
8062
8127
8187
8119
8286
8133
8361
8168
8290
8177
8182
8222
8101
8279
8007
8298
7969
8265
7994
8237
8093
8181
8180
8135
8221
8089
8210
8106
8178
8188
8127
8273
8087
8333
8047
8325
8052
8257
8109
8196
8191
8123
8254
8055
8290
8035
8271
8057
8204
8120
8137
8188
8076
8185
8052
8179
8069
8110
8142
8042
8221
7974
8281
7972
8312
8014
8256
8064
8181
8132
8090
8186
8058
8224
8069
8209
8108
8114
8126
8032
8196
8004
8242
8080
8290
8152
8204
8195
8107
8249
8034
8332
8040
8331
8044
8285
8112
8227
8205
8168
8239
8113
8227
8089
8155
8139
8076
8194
8008
8256
7966
8268
7993
8251
8061
8197
8147
8116
8211
8037
8233
8010
8240
8057
8210
8126
8145
8198
8100
8241
8067
8198
8066
8129
8119
8025
8188
7967
8237
7957
8313
8015
8326
8147
8338
8276
8286
8339
8210
8334
8157
8277
8173
8176
8188
8074
8240
8020
8257
8014
8234
8055
8188
8157
8121
8229
8023
8248
7973
8257
7981
8217
8070
8216
8228
8211
8226
8084
8207
8103
8198
8179
8145
8250
8055
8305
8012
8312
8007
8299
8054
8223
8136
8148
8197
8049
8205
7985
8161
7991
8136
8094
8129
8200
8090
8240
8058
8219
8084
8197
8185
8141
8243
8034
8269
7966
8287
7969
8283
8077
8274
8193
8232
8246
8123
8218
8069
8174
8093
8125
8181
8086
8253
8029
8282
8030
8287
8078
8239
8170
8181
8262
8117
8310
8057
8314
8031
8241
8027
8116
8075
8061
8141
8060
8223
8115
8208
8169
8151
8237
8068
8301
8004
8316
7995
8307
8041
8232
8108
8152
8176
8071
8219
8044
8239
8073
8193
8118
8119
8189
8066
8247
8050
8250
8068
8201
8138
8139
8219
8044
8258
7986
8330
8040
8331
8056
8218
8070
8099
8106
8029
8112
8005
8144
8097
8154
8181
8084
8265
8042
8305
8036
8315
8050
8234
8111
8157
8193
8076
8247
8024
8265
8010
8223
8059
8194
8155
8136
8207
8085
8216
8076
8196
8136
8126
8184
8053
8289
8010
8310
7984
8316
8041
8279
8139
8218
8201
8146
8260
8114
8264
8080
8195
8130
8143
8197
8041
8183
7977
8190
8001
8173
8082
8180
8265
8152
8358
8098
8363
8041
8321
8059
8244
8105
8174
8180
8114
8216
8098
8223
8165
8239
8244
8145
8305
8088
8365
8056
8334
8051
8270
8111
8189
8164
8095
8215
8013
8209
7976
8167
8013
8133
8109
8098
8164
8052
8226
8093
8229
8135
8151
8169
8031
8215
7974
8285
7981
8333
8060
8312
8122
8218
8164
8132
8198
8061
8206
8066
8178
8122
8127
8197
8059
8250
8022
8270
8032
8231
8090
8164
8182
8128
8273
8035
8307
8053
8339
8062
8240
8077
8130
8100
8053
8138
8035
8186
8105
8177
8179
8096
8248
8057
8342
8032
8327
8012
8262
8052
8195
8157
8139
8228
8069
8252
8050
8250
8084
8190
8150
8130
8210
8064
8209
8030
8205
8087
8166
8173
8092
8239
8019
8326
8034
8368
8062
8325
8083
8198
8125
8111
8165
8026
8137
8010
8108
8067
8087
8202
8099
8309
8074
8334
8072
8293
8115
8222
8170
8137
8233
8042
8266
8019
8297
8057
8265
8095
8161
8131
8086
8166
8051
8190
8073
8160
8172
8137
8276
8067
8314
8010
8338
8011
8284
8040
8187
8100
8117
8188
8065
8232
8062
8243
8095
8232
8206
8191
8277
8107
8271
8059
8237
8092
8181
8136
8098
8229
8039
8276
7991
8320
8005
8284
8067
8238
8171
8185
8221
8106
8208
8069
8179
8134
8151
8192
8051
8249
8013
8290
7997
8254
8054
8225
8147
8158
8217
8072
8257
8006
8250
8005
8191
8038
8103
8096
8070
8207
8103
8257
8115
8205
8159
8120
8223
8062
8313
8006
8328
7999
8318
8088
8272
8118
8147
8160
8066
8195
8041
8181
8050
8134
8122
8125
8256
8103
8314
8085
8305
8117
8235
8159
8142
8213
8064
8288
8022
8312
8007
8266
8019
8182
8074
8118
8186
8108
8229
8101
8216
8154
8147
8176
8026
8212
7978
8259
7959
8244
8009
8228
8129
8199
8235
8132
8272
8055
8270
8038
8229
8095
8195
8179
8119
8233
8095
8253
8097
8212
8148
8149
8221
8068
8297
8032
8344
8019
8345
8080
8322
8147
8214
8190
8108
8189
8022
8160
8062
8155
8131
8098
8193
8044
8269
8038
8276
8042
8218
8114
8151
8198
8072
8256
8006
8280
7996
8270
8033
8208
8092
8144
8168
8085
8190
8084
8199
8098
8135
8171
8058
8274
8097
8415
8094
8382
8069
8286
8116
8202
8180
8116
8230
8039
8219
8012
8160
8033
8105
8079
8063
8229
8070
8222
8048
8202
8123
8154
8179
8058
8239
7989
8291
7978
8305
8018
8276
8120
8223
8197
8164
8231
8092
8207
8074
8167
8144
8127
8248
8094
8320
8066
8315
8052
8251
8099
8183
8177
8092
8242
8046
8312
8044
8301
8064
8239
8107
8142
8145
8070
8185
8071
8188
8095
8141
8156
8074
8237
8020
8304
7983
8295
7991
8258
8052
8179
8125
8107
8196
8061
8256
8080
8244
8093
8164
8131
8061
8160
8002
8186
7988
8165
8043
8121
8161
8123
8273
8043
8346
8055
8397
8118
8379
8182
8310
8266
8246
8281
8126
8241
8113
8195
8156
8105
8176
7997
8205
7954
8240
7994
8253
8067
8194
8141
8111
8225
8054
8263
8010
8253
8030
8229
8134
8190
8198
8120
8250
8121
8284
8168
8229
8235
8172
8291
8055
8311
7992
8322
8011
8297
8062
8229
8147
8154
8201
8069
8212
8051
8209
8083
8134
8131
8072
8196
8007
8206
7990
8198
8041
8157
8129
8092
8220
8044
8303
7990
8271
7977
8224
8025
8155
8086
8080
8146
8056
8179
8087
8198
8191
8193
8261
8081
8299
8031
8319
8025
8305
8079
8246
8141
8153
8240
8131
8340
8107
8321
8086
8225
8102
8132
8156
8095
8236
8076
8222
8086
8174
8143
8103
8221
8018
8282
7988
8308
7979
8286
8039
8237
8140
8185
8213
8105
8228
8081
8211
8106
8176
8173
8080
8222
8040
8265
8027
8264
8066
8212
8135
8139
8232
8083
8311
8032
8296
7976
8193
7978
8104
8047
8065
8122
8046
8175
8085
8217
8154
8153
8264
8140
8330
8047
8351
8037
8336
8055
8244
8114
8176
8209
8120
8274
8079
8286
8078
8220
8096
8131
8180
8116
8279
8128
8300
8116
8238
8180
8185
8256
8084
8309
8020
8341
8018
8315
8031
8229
8086
8155
8149
8067
8182
8049
8168
8075
8133
8137
8081
8216
8031
8271
8006
8245
8003
8192
8080
8129
8166
8047
8228
7998
8244
7980
8248
8067
8239
8183
8208
8230
8128
8268
8118
8227
8151
8160
8202
8072
8263
8015
8324
8011
8327
8041
8269
8112
8182
8138
8057
8165
8005
8164
8001
8156
8087
8138
8184
8095
8254
8050
8235
8040
8185
8095
8136
8197
8076
8271
8011
8298
7972
8293
8035
8261
8094
8192
8173
8141
8257
8134
8262
8152
8216
8209
8152
8261
8054
8286
8011
8289
8026
8246
8102
8181
8179
8115
8254
8053
8281
8023
8244
8034
8183
8118
8141
8199
8093
8243
8088
8202
8107
8143
8170
8056
8228
7983
8296
7978
8307
8009
8252
8049
8177
8134
8095
8201
8072
8230
8067
8209
8117
8151
8199
8092
8269
8078
8308
8104
8272
8127
8190
8203
8132
8288
8064
8348
8041
8331
8039
8264
8083
8179
8135
8077
8153
8068
8197
8097
8154
8142
8076
8201
8010
8261
7980
8292
8014
8256
8062
8206
8175
8142
8256
8092
8299
8065
8281
8079
8212
8133
8140
8199
8081
8211
8055
8194
8069
8138
8141
8065
8274
8089
8371
8035
8354
8053
8329
8090
8222
8146
8133
8178
8055
8190
8028
8135
8052
8069
8100
8001
8161
7974
8205
7964
8171
8005
8140
8143
8118
8244
8066
8334
8060
8366
8125
8355
8160
8247
8207
8175
8229
8096
8212
8088
8189
8159
8110
8229
8056
8331
8071
8388
8078
8345
8080
8226
8127
8136
8218
8080
8251
8042
8236
8070
8215
8149
8172
8225
8098
8239
8039
8192
8047
8157
8146
8093
8203
7997
8259
7968
8295
7982
8274
8032
8214
8131
8158
8195
8092
8213
8084
8214
8132
8160
8194
8085
8266
8045
8305
8040
8281
8071
8224
8154
8149
8228
8063
8260
8016
8287
8024
8230
8048
8158
8104
8076
8140
8044
8193
8092
8202
8166
8144
8212
8026
8251
7975
8301
7989
8302
8058
8266
8147
8182
8204
8116
8255
8061
8237
8056
8183
8110
8112
8178
8073
8268
8106
8341
8178
8284
8211
8192
8260
8073
8307
8016
8316
7991
8287
8051
8247
8127
8162
8180
8092
8198
8063
8168
8085
8107
8151
8052
8228
8002
8258
7979
8254
8023
8217
8095
8146
8199
8096
8278
8044
8283
8030
8247
8064
8176
8123
8111
8202
8085
8229
8099
8209
8147
8143
8211
8061
8291
8011
8325
7998
8300
8007
8221
8060
8141
8141
8079
8203
8043
8203
8051
8192
8142
8200
8304
8152
8311
8084
8301
8096
8245
8140
8153
8202
8064
8262
7993
8288
7984
8277
8015
8217
8078
8145
8153
8079
8191
8072
8198
8113
8185
8227
8125
8280
8050
8325
8046
8351
8062
8261
8088
8162
8173
8109
8249
8057
8265
8012
8195
8030
8127
8094
8082
8173
8084
8253
8093
8219
8142
8169
8212
8081
8271
8009
8311
7984
8299
8011
8257
8083
8198
8156
8125
8221
8112
8275
8126
8227
8165
8154
8237
8102
8303
8075
8319
8071
8248
8097
8150
8153
8042
8219
8012
8288
8014
8307
8062
8276
8121
8191
8152
8081
8169
8055
8163
8057
8111
8137
8065
8226
8013
8276
7963
8265
7969
8229
8041
8180
8145
8115
8212
8052
8268
8060
8252
8071
8179
8122
8092
8171
8071
8255
8096
8257
8152
8197
8212
8135
8298
8068
8350
8023
8341
8022
8288
8074
8202
8147
8126
8185
8068
8210
8078
8183
8113
8098
8167
8030
8234
8000
8258
7997
8231
8056
8192
8194
8153
8265
8051
8293
8022
8283
8029
8226
8091
8167
8159
8102
8231
8108
8273
8174
8235
8222
8156
8286
8078
8333
8023
8348
8032
8320
8080
8226
8151
8143
8205
8069
8219
8021
8166
8022
8101
8060
8027
8116
7984
8167
8014
8222
8089
8202
8179
8116
8229
8011
8260
7973
8305
8004
8274
8040
8199
8146
8182
8232
8127
8259
8136
8238
8191
8186
8250
8153
8378
8107
8359
8068
8328
8109
8228
8142
8124
8195
8022
8216
7987
8274
8065
8277
8127
8208
8191
8126
8218
8076
8195
8070
8159
8141
8106
8224
8022
8274
7974
8291
7966
8269
8027
8213
8095
8127
8151
8028
8164
8008
8154
8031
8138
8167
8165
8286
8137
8344
8133
8326
8141
8251
8182
8153
8239
8072
8329
8054
8373
8076
8340
8084
8223
8108
8123
8162
8075
8186
8069
8171
8097
8096
8164
8031
8230
7987
8280
7982
8254
8026
8208
8098
8136
8177
8058
8227
8014
8248
8017
8190
8046
8128
8128
8089
8210
8086
8261
8150
8273
8213
8186
8267
8086
8323
8034
8357
8024
8339
8067
8264
8124
8179
8178
8090
8202
8060
8208
8085
8173
8130
8087
8187
8018
8234
7996
8222
8015
8196
8112
8138
8203
8061
8265
8015
8287
8001
8268
8036
8205
8096
8131
8169
8099
8233
8107
8222
8157
8174
8218
8094
8294
8044
8323
8014
8319
8040
8258
8113
8185
8180
8112
8233
8045
8237
8043
8206
8075
8140
8142
8095
8215
8071
8238
8076
8212
8128
8130
8176
8033
8239
7991
8302
7994
8326
8040
8256
8088
8191
8161
8114
8206
8080
8232
8112
8197
8191
8170
8304
8132
8346
8083
8338
8085
8273
8130
8191
8200
8110
8269
8052
8296
7993
8248
8007
8176
8054
8099
8127
8066
8183
8066
8201
8119
8158
8178
8067
8245
8013
8311
7999
8316
8018
8269
8077
8197
8161
8117
8218
8068
8237
8051
8220
8099
8154
8168
8119
8257
8089
8286
8102
8257
8142
8187
8201
8100
8260
8027
8322
8012
8324
8032
8269
8074
8192
8142
8101
8179
8065
8178
8080
8168
8130
8092
8202
8031
8264
8001
8285
8005
8233
8053
8163
8130
8087
8210
8022
8232
7981
8222
7979
8127
8048
8133
8185
8098
8234
8096
8241
8133
8181
8198
8152
8335
8112
8384
8062
8376
8074
8372
8158
8292
8190
8165
8206
8054
8200
8031
8177
8078
8130
8147
8087
8208
8029
8230
8023
8225
8081
8184
8153
8107
8234
8035
8299
8003
8308
8028
8300
8092
8221
8161
8128
8199
8086
8206
8101
8195
8159
8137
8227
8064
8305
8037
8342
8045
8307
8069
8217
8123
8108
8177
8020
8216
7996
8213
8018
8179
8085
8133
8158
8091
8229
8057
8201
8075
8167
8136
8059
8193
8005
8279
7991
8342
8037
8333
8084
8249
8138
8164
8207
8124
8264
8105
8246
8118
8179
8189
8119
8281
8082
8309
8061
8275
8071
8205
8146
8136
8227
8054
8271
8016
8316
8035
8289
8069
8201
8119
8127
8195
8084
8204
8072
8173
8109
8089
8171
8016
8224
7968
8266
7958
8257
8026
8236
8126
8168
8210
8112
8259
8048
8246
8037
8199
8106
8142
8185
8115
8267
8098
8269
8102
8220
8162
8147
8223
8068
8307
8015
8336
8007
8311
8043
8235
8091
8150
8156
8086
8198
8067
8208
8103
8166
8182
8108
8244
8050
8292
8030
8293
8053
8235
8125
8158
8192
8062
8247
8011
8281
8021
8267
8058
8200
8111
8123
8176
8070
8202
8081
8200
8145
8145
8214
8091
8301
8037
8343
8020
8334
8056
8285
8129
8207
8186
8109
8218
8054
8245
8075
8216
8119
8166
8197
8103
8257
8074
8272
8073
8217
8123
8138
8187
8055
8254
8001
8302
7989
8295
8013
8230
8062
8138
8102
8050
8142
8049
8157
8079
8137
8156
8098
8226
8036
8281
8005
8283
8028
8249
8113
8197
8204
8141
8292
8085
8317
8062
8299
8088
8233
8167
8186
8223
8114
8248
8102
8220
8134
8159
8196
8081
8257
8012
8311
7995
8325
8031
8290
8098
8216
8166
8122
8201
8056
8221
8060
8207
8122
8167
8194
8103
8263
8063
8281
8061
8251
8118
8188
8197
8108
8265
8032
8307
7997
8288
8007
8226
8053
8151
8116
8088
8179
8062
8179
8079
8155
8144
8082
8217
8030
8278
8000
8293
7998
8245
8044
8170
8133
8098
8206
8044
8252
8037
8256
8070
8214
8142
8146
8206
8102
8244
8078
8225
8111
8180
8184
8101
8254
8029
8314
8004
8332
8013
8279
8061
8201
8131
8126
8188
8070
8209
8065
8200
8110
8133
8176
8070
8241
8030
8270
8023
8231
8064
8181
8152
8102
8234
8041
8296
8010
8302
8034
8273
8089
8195
8163
8133
8219
8102
8243
8127
8216
8191
8151
8255
8070
8312
8022
8330
8024
8309
8069
8231
8141
8147
8206
8071
8243
8047
8254
8069
8192
8116
8123
8185
8068
8227
8046
8211
8067
8156
8141
8102
8223
8020
8285
7984
8313
7987
8281
8045
8214
8118
8145
8186
8093
8221
8091
8212
8135
8179
8214
8108
8277
8046
8297
8029
8275
8070
8227
8158
8161
8239
8086
8290
8037
8306
8043
8267
8073
8185
8130
8115
8188
8078
8209
8080
8176
8136
8120
8208
8049
8283
8000
8310
7987
8290
8028
8225
8103
8158
8182
8081
8230
8060
8247
8073
8197
8130
8162
8219
8102
8280
8084
8285
8099
8229
8166
8160
8241
8081
8306
8018
8317
8007
8292
8033
8217
8091
8143
8161
8084
8193
8065
8171
8091
8123
8156
8055
8223
8002
8278
8002
8274
8034
8227
8111
8156
8188
8077
8250
8037
8279
8033
8258
8071
8202
8159
8139
8222
8104
8247
8106
8219
8156
8157
8222
8078
8296
8026
8337
8006
8319
8026
8250
8078
8163
8144
8088
8197
8053
8220
8067
8196
8122
8123
8193
8073
8253
8045
8254
8049
8229
8115
8154
8187
8067
8265
8023
8312
8019
8316
8050
8250
8113
8185
8184
8123
8219
8107
8227
8140
8194
8203
8116
8278
8056
8316
8028
8329
8046
8270
8106
8195
8167
8108
8218
8034
8240
8017
8235
8057
8169
8116
8096
8181
8055
8214
8055
8199
8098
8147
8177
8071
8252
8005
8304
7989
8310
8008
8262
8076
8190
8143
8109
8196
8071
8218
8085
8207
8141
8167
8235
8102
8279
8043
8291
8044
8251
8107
8195
8187
8116
8253
8038
8297
8011
8295
8024
8227
8079
8161
8133
8097
8198
8081
8208
8104
8174
8169
8100
8241
8037
8298
7993
8303
8002
8253
8050
8196
8129
8119
8206
8056
8231
8035
8231
8066
8175
8133
8112
8198
8073
8246
8076
8243
8121
8182
8176
8116
8268
8067
8349
8039
8360
8050
8323
8094
8248
8165
8163
8207
8089
8207
8076
8190
8111
8128
8186
8063
8253
8019
8281
8009
8257
8068
8210
8150
8128
8215
8041
8263
8010
8283
8031
8237
8085
8182
8163
8117
8216
8087
8227
8114
8198
8169
8133
8251
8062
8314
8019
8344
8017
8304
8055
8235
8127
8144
8184
8076
8210
8046
8208
8067
8177
8126
8108
8196
8055
8246
8044
8237
8069
8189
8139
8117
8217
8039
8276
7999
8311
8001
8282
8040
8207
8106
8147
8182
8097
8216
8102
8213
8143
8167
8214
8091
8287
8045
8318
8026
8303
8076
8251
8140
8160
8204
8067
8246
8025
8270
8032
8233
8081
8170
8133
8090
8190
8063
8202
8070
8176
8122
8118
8195
8045
8288
8000
8311
7982
8298
8023
8239
8096
8164
8176
8095
8218
8075
8243
8097
8210
8171
8160
8239
8088
8291
8072
8300
8096
8260
8170
8187
8239
8098
8293
8039
8322
8021
8294
8049
8228
8105
8164
8184
8109
8210
8084
8196
8110
8147
8168
8057
8237
8003
8289
7996
8288
8013
8233
8092
8172
8181
8095
8233
8037
8254
8039
8241
8097
8187
8172
8131
8242
8107
8260
8092
8217
8127
8144
8205
8072
8281
8022
8333
8001
8313
8023
8253
8075
8172
8148
8101
8206
8075
8226
8080
8176
8123
8101
8195
8046
8256
8019
8258
8027
8224
8092
8159
8177
8087
8248
8027
8297
8010
8281
8041
8225
8093
8158
8174
8105
8234
8097
8227
8144
8176
8190
8100
8264
8034
8315
8010
8325
8028
8276
8092
8199
8164
8120
8214
8052
8230
8033
8211
8085
8167
8146
8109
8215
8064
8234
8056
8214
8104
8162
8178
8079
8243
8012
8307
7992
8313
8018
8265
8075
8191
8145
8121
8204
8084
8226
8100
8196
8163
8134
8221
8070
8283
8024
8302
8036
8265
8104
8214
8181
8126
8244
8045
8284
8025
8278
8050
8247
8121
8183
8190
8113
8242
8090
8216
8110
8176
8163
8084
8231
8021
8290
7981
8311
8002
8270
8049
8212
8134
8138
8200
8076
8239
8074
8248
8116
8196
8171
8121
8230
8067
8270
8054
8242
8092
8190
8167
8126
8251
8040
8301
8002
8305
7999
8249
8048
8194
8129
8115
8190
8086
8205
8080
8184
8128
8118
8199
8047
8268
8001
8283
8001
8258
8054
8216
8138
8130
8209
8059
8236
8012
8253
8032
8220
8099
8164
8183
8115
8240
8100
8245
8110
8204
8174
8132
8242
8057
8320
8013
8333
8006
8301
8041
8222
8103
8132
8163
8071
8211
8061
8225
8092
8167
8163
8114
8223
8057
8274
8040
8261
8077
8211
8141
8131
8211
8050
8277
8008
8297
8006
8271
8051
8208
8122
8148
8190
8100
8222
8107
8212
8155
8157
8216
8065
8276
8025
8317
8021
8319
8065
8255
8133
8178
8201
8085
8245
8033
8254
8041
8211
8082
8139
8142
8079
8202
8054
8217
8066
8184
8138
8127
8209
8049
8282
8002
8330
8003
8316
8041
8244
8111
8162
8169
8099
8219
8084
8238
8112
8200
8185
8120
8237
8060
8290
8043
8292
8061
8230
8126
8158
8208
8074
8270
8024
8284
8006
8261
8040
8203
8116
8149
8182
8088
8220
8076
8184
8110
8129
8183
8061
8255
8009
8300
7992
8306
8026
8256
8101
8180
8174
8107
8223
8054
8235
8057
8214
8105
8167
8178
8105
8250
8073
8265
8084
8229
8139
8164
8214
8087
8289
8024
8326
8010
8314
8019
8243
8069
8169
8160
8103
8203
8079
8214
8106
8177
8156
8101
8227
8049
8279
8015
8285
8033
8238
8089
8168
8171
8096
8254
8033
8279
8013
8262
8046
8205
8108
8138
8194
8111
8248
8104
8227
8138
8166
8196
8099
8280
8046
8336
8010
8332
8031
8279
8076
8187
8137
8106
8198
8048
8209
8050
8200
8100
8147
8173
8086
8237
8062
8267
8053
8226
8105
8166
8182
8094
8252
8020
8308
8008
8309
8028
8261
8074
8177
8146
8123
8210
8117
8248
8128
8213
8182
8127
8240
8055
8298
8020
8310
8033
8270
8087
8196
8155
8114
8212
8035
8247
8009
8252
8055
8212
8120
8144
8186
8096
8231
8073
8214
8105
8164
8169
8088
8243
8018
8301
7983
8309
8001
8270
8049
8195
8116
8112
8181
8067
8220
8065
8214
8113
8179
8205
8122
8275
8082
8320
8100
8304
8128
8211
8172
8111
8229
8031
8275
8000
8287
8001
8236
8047
8161
8104
8098
8172
8063
8197
8077
8163
8142
8105
8218
8048
8295
8019
8312
8006
8264
8046
8208
8132
8143
8218
8078
8258
8049
8264
8075
8220
8138
8180
8220
8120
8259
8086
8244
8102
8200
8175
8131
8254
8057
8317
8011
8333
8010
8298
8050
8219
8123
8146
8182
8086
8215
8078
8200
8107
8142
8169
8078
8226
8023
8273
8020
8255
8057
8200
8134
8128
8214
8047
8266
7996
8280
8006
8237
8056
8195
8136
8141
8215
8107
8247
8113
8215
8167
8149
8226
8069
8307
8027
8339
8017
8311
8055
8241
8110
8152
8179
8068
8228
8049
8242
8064
8206
8113
8132
8180
8074
8228
8047
8231
8076
8195
8134
8121
8202
8040
8274
8000
8312
8000
8297
8040
8231
8101
8159
8179
8099
8224
8097
8220
8130
8177
8192
8094
8239
8037
8294
8025
8292
8066
8244
8141
8172
8215
8092
8267
8047
8296
8033
8278
8080
8214
8154
8129
8196
8084
8212
8083
8189
8136
8144
8210
8062
8263
7994
8307
7987
8303
8015
8248
8092
8172
8157
8086
8212
8062
8232
8076
8206
8141
8167
8211
8108
8272
8069
8279
8079
8228
8149
8179
8219
8078
8271
8019
8309
7989
8289
8020
8229
8088
8167
8156
8096
8198
8079
8202
8102
8155
8165
8081
8233
8029
8292
8004
8289
8023
8244
8092
8169
8165
8088
8221
8025
8259
8025
8255
8074
8207
8147
8140
8216
8108
8251
8101
8227
8138
8176
8198
8087
8281
8029
8324
8002
8326
8023
8265
8070
8183
8148
8117
8207
8068
8213
8065
8185
8105
8116
8165
8058
8238
8030
8248
8036
8223
8088
8151
8156
8086
8251
8032
8295
8009
8301
8030
8258
8120
8221
8213
8172
8265
8136
8268
8159
8205
8195
8117
8256
8053
8310
8018
8322
8021
8264
8069
8196
8150
8109
8199
8036
8249
8042
8255
8079
8203
8141
8128
8188
8064
8216
8054
8207
8095
8166
8180
8099
8253
8030
8316
7999
8321
8000
8259
8038
8183
8120
8119
8187
8068
8211
8078
8199
8134
8162
8211
8090
8275
8052
8296
8045
8268
8103
8201
8169
8127
8239
8048
8288
8010
8286
8028
8232
8073
8178
8150
8107
8196
8071
8196
8083
8167
8153
8099
8225
8031
8289
7989
8304
7995
8275
8048
8209
8126
8131
8195
8068
8239
8065
8257
8094
8214
8175
8151
8233
8097
8270
8074
8247
8117
8199
8176
8138
8266
8059
8317
8012
8323
7994
8278
8043
8210
8121
8143
8185
8081
8202
8072
8183
8111
8130
8181
8060
8251
8022
8285
8015
8265
8052
8207
8131
8138
8207
8051
8253
8016
8284
8032
8256
8086
8196
8165
8134
8223
8103
8246
8110
8203
8164
8141
8239
8065
8312
8019
8330
8002
8311
8038
8226
8105
8142
8179
8077
8219
8052
8234
8073
8182
8125
8106
8187
8059
8241
8045
8245
8069
8204
8131
8125
8215
8052
8275
8007
8317
8003
8283
8028
8211
8105
8140
8169
8097
8216
8089
8197
8125
8153
8196
8080
8266
8023
8309
8023
8320
8077
8280
8166
8208
8231
8119
8261
8048
8280
8043
8255
8088
8192
8159
8117
8203
8077
8225
8088
8200
8139
8133
8199
8042
8264
8000
8307
7979
8304
8021
8243
8077
8164
8155
8088
8206
8073
8238
8100
8209
8164
8143
8220
8080
8281
8056
8290
8071
8240
8128
8162
8194
8068
8265
8022
8302
8003
8280
8053
8238
8115
8163
8163
8081
8172
8047
8151
8072
8105
8148
8050
8235
8013
8296
7998
8307
8024
8251
8095
8185
8171
8111
8235
8055
8276
8057
8255
8110
8200
8190
8141
8244
8083
8250
8084
8226
8141
8174
8229
8114
8296
8030
8326
8002
8317
8009
8243
8049
8166
8139
8112
8205
8076
8229
8091
8195
8145
8124
8211
8057
8255
8017
8267
8021
8221
8084
8158
8161
8087
8238
8019
8278
7989
8262
8028
8225
8100
8174
8181
8125
8242
8106
8229
8126
8176
8195
8105
8262
8048
8330
8014
8330
8029
8279
8072
8190
8138
8111
8198
8050
8235
8042
8233
8090
8176
8141
8097
8205
8059
8246
8057
8226
8117
8183
8183
8109
8265
8032
8311
8005
8318
8019
8272
8074
8208
8155
8146
8222
8107
8246
8123
8215
8171
8157
8234
8078
8291
8036
8318
8046
8276
8099
8207
8158
8120
8214
8043
8262
8010
8276
8043
8231
8085
8155
8161
8093
8204
8077
8203
8092
8165
8157
8084
8222
8017
8285
7986
8310
7996
8279
8045
8207
8121
8137
8193
8076
8226
8070
8244
8112
8199
8177
8127
8247
8078
8273
8062
8251
8087
8203
8164
8124
8239
8038
8295
8004
8307
8005
8276
8057
8200
8130
8144
8184
8082
8204
8078
8174
8116
8109
8187
8045
8244
7987
8273
7994
8267
8046
8214
8137
8152
8209
8064
8259
8042
8284
8062
8267
8133
8206
8209
8138
8254
8105
8264
8112
8213
8176
8151
8252
8067
8321
8011
8327
7998
8293
8035
8222
8103
8151
8167
8085
8210
8067
8222
8087
8150
8128
8086
8201
8046
8256
8022
8234
8046
8189
8114
8120
8207
8050
8262
8006
8292
8008
8276
8055
8216
8141
8165
8203
8113
8239
8110
8217
8153
8157
8210
8080
8289
8044
8327
8019
8306
8037
8244
8118
8162
8185
8080
8222
8040
8261
8054
8219
8088
8144
8148
8079
8200
8056
8216
8065
8190
8125
8129
8200
8054
8280
7998
8312
7996
8303
8022
8230
8074
8163
8165
8100
8220
8085
8235
8113
8193
8177
8125
8244
8071
8302
8058
8311
8083
8265
8140
8179
8187
8089
8242
8015
8283
8012
8264
8043
8204
8097
8131
8176
8087
8194
8080
8193
8106
8145
8186
8079
8258
8017
8314
7995
8313
8028
8266
8101
8192
8162
8109
8217
8052
8234
8073
8241
8121
8191
8197
8124
8251
8079
8270
8080
8237
8143
8181
8209
8099
8263
8018
8299
7983
8293
8000
8242
8071
8180
8142
8104
8193
8071
8202
8097
8184
8166
8113
8224
8044
8270
8009
8284
8018
8248
8087
8177
8162
8102
8230
8031
8255
8014
8265
8048
8223
8117
8168
8201
8121
8245
8103
8236
8141
8185
8201
8123
8273
8046
8331
8016
8328
8013
8271
8060
8197
8134
8132
8202
8073
8221
8064
8211
8097
8169
8169
8084
8210
8040
8247
8036
8223
8078
8165
8148
8102
8236
8025
8291
7989
8292
8010
8256
8071
8194
8161
8149
8215
8113
8247
8121
8201
8176
8138
8232
8067
8313
8039
8336
8033
8286
8062
8208
8137
8122
8205
8047
8245
8027
8256
8044
8206
8101
8136
8167
8084
8218
8069
8214
8085
8169
8148
8083
8217
8027
8295
7991
8320
7999
8293
8047
8215
8123
8154
8187
8098
8231
8094
8252
8142
8204
8204
8118
8264
8077
8309
8069
8299
8108
8220
8161
8137
8229
8050
8268
7992
8283
7994
8245
8048
8194
8125
8128
8193
8094
8190
8086
8180
8125
8109
8210
8042
8271
7995
8291
7981
8264
8028
8215
8117
8139
8185
8071
8238
8052
8260
8074
8232
8137
8175
8222
8125
8265
8091
8250
8098
8212
8164
8141
8249
8072
8318
8016
8325
7993
8285
8021
8209
8086
8144
8173
8097
8214
8071
8198
8094
8141
8156
8076
8223
8030
8261
8005
8244
8024
8208
8112
8130
8191
8048
8241
7998
8270
7999
8247
8056
8215
8158
8164
8221
8124
8255
8131
8229
8173
8173
8234
8093
8312
8035
8336
8021
8324
8043
8247
8105
8165
8171
8094
8231
8057
8242
8058
8206
8110
8137
8181
8089
8238
8051
8236
8061
8210
8129
8142
8205
8059
8260
8004
8305
7989
8295
8023
8237
8087
8171
8183
8123
8232
8112
8245
8133
8187
8186
8115
8251
8044
8296
8021
8292
8037
8248
8107
8168
8175
8092
8235
8023
8268
8016
8254
8052
8188
8111
8128
8180
8077
8211
8079
8196
8115
8152
8182
8065
8257
8005
8310
7987
8305
8006
8248
8067
8176
8148
8116
8216
8077
8246
8084
8220
8130
8165
8202
8092
8255
8053
8275
8064
8239
8121
8177
8200
8100
8271
8037
8320
8013
8309
8030
8247
8089
8175
8163
8117
8197
8083
8213
8105
8172
8167
8094
8230
8036
8292
8013
8311
8025
8264
8091
8192
8157
8115
8234
8063
8283
8039
8272
8069
8212
8139
8148
8209
8103
8253
8086
8235
8133
8186
8209
8113
8277
8038
8310
7981
8298
7982
8243
8036
8184
8125
8117
8179
8056
8207
8062
8199
8108
8130
8179
8068
8234
8027
8267
8028
8238
8073
8185
8168
8120
8239
8037
8270
7999
8291
8027
8268
8100
8204
8178
8143
8232
8112
8245
8118
8199
8177
8134
8243
8062
8304
8008
8308
8006
8275
8045
8202
8120
8116
8189
8054
8236
8033
8240
8061
8187
8122
8123
8182
8076
8241
8067
8235
8095
8187
8168
8118
8245
8039
8308
7997
8326
8007
8292
8054
8222
8131
8160
8194
8102
8249
8108
8230
8139
8178
8211
8101
8277
8056
8313
8046
8284
8071
8221
8155
8131
8216
8044
8257
8007
8274
8020
8233
8057
8175
8129
8110
8185
8074
8205
8088
8182
8145
8118
8214
8045
8287
8003
8320
8003
8301
8032
8218
8097
8145
8180
8085
8233
8069
8254
8091
8214
8146
8149
8212
8096
8274
8083
8282
8127
8239
8180
8155
8237
8056
8275
7993
8297
7975
8274
8019
8203
8093
8144
8161
8089
8203
8078
8209
8122
8160
8178
8070
8225
8011
8280
7994
8256
8024
8217
8095
8134
8180
8073
8255
8049
8296
8048
8279
8100
8220
8186
8154
8227
8103
8250
8108
8227
8157
8163
8230
8084
8300
8022
8333
7997
8307
8016
8239
8075
8167
8170
8096
8217
8062
8214
8065
8163
8111
8118
8198
8068
8253
8049
8250
8040
8209
8102
8131
8176
8049
8241
7996
8297
8002
8294
8045
8232
8105
8174
8187
8126
8241
8099
8215
8121
8176
8186
8098
8254
8043
8309
8014
8309
8035
8245
8088
8171
8164
8077
8226
8055
8281
8050
8256
8083
8190
8129
8111
8198
8071
8226
8077
8213
8131
8150
8191
8069
8260
8011
8316
7991
8321
8024
8261
8079
8191
8154
8121
8214
8082
8243
8102
8206
8146
8160
8218
8079
8277
8057
8303
8066
8265
8117
8181
8180
8096
8245
8024
8292
8003
8289
8026
8235
8086
8155
8150
8093
8192
8074
8197
8100
8164
8171
8083
8226
8022
8295
7996
8308
8012
8268
8066
8198
8153
8124
8227
8064
8270
8071
8268
8102
8203
8169
8134
8224
8080
8253
8072
8236
8120
8181
8188
8100
8256
8022
8302
7981
8299
7992
8252
8049
8196
8129
8126
8191
8078
8204
8072
8183
8122
8118
8189
8057
8262
8025
8282
8036
8261
8086
8196
8156
8107
8218
8039
8261
8014
8283
8041
8262
8115
8203
8189
8133
8240
8102
8231
8121
8197
8188
8139
8261
8058
8314
8011
8319
7998
8274
8040
8197
8113
8131
8191
8064
8233
8056
8237
8087
8188
8133
8108
8206
8054
8250
8041
8226
8075
8175
8148
8109
8236
8035
8295
7990
8315
8002
8281
8055
8222
8140
8158
8210
8115
8241
8105
8212
8153
8154
8214
8083
8292
8048
8309
8022
8277
8055
8216
8131
8134
8201
8050
8250
8025
8278
8037
8238
8091
8171
8161
8109
8212
8082
8219
8086
8172
8138
8112
8215
8033
8290
7993
8305
7977
8287
8027
8225
8115
8152
8186
8104
8246
8095
8267
8131
8218
8181
8131
8233
8083
8279
8056
8256
8068
8205
8139
8131
8213
8050
8273
8004
8302
8005
8279
8040
8207
8104
8142
8166
8083
8205
8081
8194
8126
8147
8195
8063
8249
8011
8293
8006
8290
8036
8234
8114
8159
8184
8076
8245
8045
8280
8066
8264
8115
8200
8190
8128
8239
8097
8262
8109
8228
8161
8158
8227
8068
8276
7993
8295
7972
8282
8003
8231
8077
8160
8153
8098
8208
8071
8226
8092
8181
8137
8104
8204
8043
8266
8023
8260
8043
8224
8116
8157
8188
8067
8255
8009
8298
8012
8281
8052
8234
8129
8170
8190
8110
8233
8094
8211
8132
8164
8202
8097
8284
8036
8328
8010
8306
8013
8243
8086
8177
8170
8111
8238
8058
8266
8062
8245
8102
8186
8181
8127
8246
8076
8248
8063
8210
8112
8137
8181
8062
8255
8001
8298
7979
8297
8008
8251
8078
8193
8167
8141
8229
8107
8251
8129
8223
8190
8154
8245
8075
8300
8044
8297
8042
8252
8099
8176
8166
8087
8225
8021
8277
8011
8270
8041
8217
8103
8158
8171
8092
8207
8078
8201
8109
8155
8174
8070
8235
8009
8292
7984
8308
7999
8258
8063
8196
8150
8117
8215
8073
8261
8076
8250
8121
8197
8181
8119
8245
8075
8276
8076
8247
8124
8184
8191
8106
8250
8021
8299
7988
8304
8009
8249
8061
8187
8142
8113
8184
8074
8189
8082
8170
8136
8110
8212
8047
8276
8019
8297
8014
8267
8067
8191
8138
8104
8207
8045
8257
8029
8283
8063
8261
8132
8186
8204
8125
8239
8093
8233
8116
8198
8189
8120
8255
8044
8312
7996
8317
7996
8272
8036
8199
8121
8131
8188
8079
8224
8065
8214
8097
8152
8159
8091
8214
8031
8251
8033
8238
8078
8184
8154
8115
8228
8038
8295
