EMG
7670
8101
7752
8031
7866
7936
7974
7863
8018
7841
8012
7915
7956
8018
7860
8139
7776
8203
7750
8200
7790
8137
7888
8001
8014
7890
8117
7826
8152
7825
8098
7881
8005
7970
7916
8060
7867
8105
7874
8064
7945
7971
8072
7859
8185
7779
8263
7770
8253
7824
8183
7920
8078
8028
7961
8118
7922
8131
7948
8083
8024
7990
8127
7906
8226
7865
8239
7893
8185
7976
8077
8106
7951
8217
7876
8275
7857
8274
7902
8179
7994
8072
8084
7978
8131
7941
8112
7980
8043
8092
7949
8207
7865
8298
7824
8314
7861
8251
7956
8136
8077
8023
8180
7931
8224
7925
8204
7991
8108
8078
8017
8179
7951
8221
7955
8197
8017
8114
8149
7994
8256
7889
8333
7845
8340
7875
8267
7970
8162
8082
8043
8154
7982
8163
7988
8119
8057
8020
8163
7933
8256
7873
8282
7873
8227
7952
8131
8079
8019
8196
7907
8265
7884
8285
7931
8228
8038
8130
8138
8031
8194
7987
8189
8015
8117
8117
8000
8232
7903
8318
7844
8341
7853
8284
7940
8182
8063
8063
8155
7968
8206
7940
8184
7989
8093
8048
7972
8138
7914
8218
7909
8192
7942
8096
8045
7963
8167
7867
8266
7809
8289
7823
8219
7897
8124
8004
8012
8084
7929
8098
7920
8065
7996
7977
8091
7878
8192
7801
8231
7797
8203
7850
8099
7970
7980
8098
7872
8169
7824
8184
7845
8114
7915
8022
8024
7929
8098
7897
8113
7916
8049
7995
7944
8117
7829
8223
7775
8264
7760
8211
7812
8117
7935
8004
8060
7922
8128
7898
8115
7937
8046
8026
7962
8134
7883
8203
7857
8200
7916
8133
8024
8023
8146
7897
8238
7834
8298
7856
8255
7919
8159
8016
8050
8110
7982
8152
7976
8130
8038
8048
8152
7942
8251
7866
8317
7840
8286
7888
8209
8012
8093
8126
7974
8223
7920
8243
7937
8196
8010
8101
8104
8008
8193
7957
8208
7974
8168
8075
8072
8194
7951
8292
7869
8352
7849
8331
7908
8243
8012
8138
8130
8029
8193
7985
8185
8014
8127
8104
8034
8214
7947
8295
7913
8297
7947
8224
8035
8102
8156
7980
8261
7894
8305
7878
8274
7933
8184
8027
8077
8121
7995
8169
7983
8153
8038
8081
8150
7973
8263
7887
8336
7849
8332
7886
8252
7984
8135
8119
8016
8203
7952
8240
7951
8198
8017
8102
8101
8004
8190
7941
8227
7951
8188
8033
8087
8136
7957
8252
7870
8315
7824
8310
7871
8226
7960
8120
8081
8021
8153
7965
8148
7984
8098
8063
7994
8172
7908
8260
7858
8270
7872
8218
7966
8119
8090
7994
8209
7900
8258
7884
8267
7929
8184
8023
8067
8108
7976
8155
7961
8153
8001
8085
8113
7964
8218
7862
8304
7812
8316
7845
8255
7937
8151
8061
8029
8150
7962
8202
7942
8154
7975
8053
8062
7958
8173
7901
8216
7896
8193
7978
8115
8104
7993
8220
7890
8294
7844
8328
7882
8262
7968
8159
8072
8048
8157
7992
8164
7997
8134
8081
8039
8194
7922
8274
7845
8283
7847
8247
7927
8153
8056
8042
8168
7935
8247
7903
8259
7940
8184
8011
8068
8105
7984
8163
7952
8174
7991
8114
8103
8008
8217
7906
8308
7834
8330
7846
8285
7922
8203
8056
8100
8159
8002
8206
7976
8171
8011
8091
8109
8006
8222
7925
8266
7904
8243
7955
8160
8079
8056
8192
7927
8280
7872
8309
7869
8259
7954
8158
8048
8055
8140
7974
8149
7969
8104
8031
8020
8156
7926
8268
7870
8339
7857
8293
7896
8191
8015
8083
8150
7981
8225
7931
8259
7947
8188
8019
8076
8115
7990
8190
7948
8210
7974
8149
8055
8032
8170
7915
8275
7841
8330
7834
8299
7886
8204
7994
8093
8101
7993
8165
7959
8147
7992
8075
8084
7979
8197
7902
8272
7880
8276
7928
8213
8037
8090
8157
7963
8242
7889
8296
7889
8269
7961
8182
8057
8075
8150
7998
8176
7991
8163
8044
8070
8158
7954
8256
7865
8328
7832
8319
7886
8239
7985
8131
8117
8007
8202
7946
8219
7947
8156
8005
8059
8109
7976
8199
7929
8233
7952
8196
8051
8096
8164
7971
8270
7876
8330
7847
8320
7900
8234
7988
8131
8097
8030
8176
7985
8160
8013
8099
8091
8001
8207
7921
8293
7873
8303
7891
8232
7981
8130
8122
8001
8211
7914
8266
7896
8253
7942
8160
8028
8052
8118
7978
8170
7962
8156
8020
8085
8132
7977
8247
7878
8334
7843
8352
7883
8281
7971
8179
8090
8064
8179
7969
8198
7948
8140
8003
8069
8113
7978
8214
7921
8252
7926
8210
7988
8110
8102
7981
8225
7887
8312
7852
8314
7886
8248
7984
8154
8096
8036
8159
7979
8159
7997
8119
8081
8018
8201
7922
8297
7861
8321
7868
8266
7952
8174
8080
8065
8202
7964
8258
7925
8260
7964
8179
8049
8080
8150
7989
8198
7957
8186
8000
8118
8097
7992
8206
7881
8305
7831
8335
7853
8288
7932
8189
8048
8074
8151
7990
8189
7969
8156
8023
8078
8134
7982
8228
7918
8291
7912
8265
7980
8189
8106
8074
8232
7966
8314
7903
8330
7906
8257
7969
8159
8072
8056
8166
7988
8156
7980
8127
8069
8031
8189
7940
8298
7860
8334
7849
8291
7911
8197
8027
8076
8143
7971
8215
7931
8227
7962
8171
8045
8074
8154
7985
8228
7956
8224
7986
8168
8099
8059
8206
7937
8301
7856
8344
7849
8318
7923
8227
8039
8119
8132
8004
8169
7971
8150
8027
8091
8129
7986
8226
7906
8296
7890
8280
7926
8200
8041
8088
8161
7964
8256
7901
8294
7901
8259
7965
8162
8065
8051
8144
7988
8181
7976
8134
8044
8058
8174
7951
8282
7871
8347
7847
8340
7903
8249
8002
8138
8130
8023
8215
7965
8226
7981
8178
8050
8076
8153
7982
8236
7931
8241
7950
8190
8043
8082
8160
7960
8273
7874
8339
7862
8322
7915
8225
8002
8124
8124
8027
8180
7989
8177
8039
8124
8140
8017
8244
7926
8321
7883
8316
7902
8238
7989
8130
8132
8031
8236
7941
8281
7919
8260
7973
8167
8064
8062
8164
7993
8206
7990
8184
8047
8100
8157
7974
8266
7881
8339
7842
8347
7892
8279
7987
8167
8096
8035
8178
7978
8203
7977
8151
8055
8081
8170
7988
8252
7920
8260
7921
8220
8000
8120
8126
7996
8241
7905
8325
7883
8326
7907
8237
7980
8125
8083
8030
8168
7991
8182
8027
8129
8121
8011
8225
7911
8303
7858
8335
7878
8268
7964
8170
8091
8054
8204
7962
8256
7935
8254
7976
8168
8065
8061
8166
7993
8220
7968
8200
8018
8138
8139
8030
8254
7913
8340
7865
8368
7885
8304
7972
8199
8076
8076
8157
7988
8182
7974
8146
8036
8064
8142
7967
8236
7905
8291
7905
8261
7972
8167
8089
8045
8217
7944
8288
7885
8300
7898
8231
7980
8132
8077
8031
8148
7985
8183
8010
8140
8104
8032
8207
7929
8314
7863
8353
7868
8305
7934
8216
8067
8096
8177
8000
8241
7961
8249
7994
8174
8077
8072
8178
7985
8251
7957
8234
8004
8170
8109
8053
8226
7936
8311
7869
8350
7874
8312
7938
8209
8043
8093
8144
8011
8182
7985
8168
8059
8095
8168
7989
8247
7908
8315
7893
8289
7948
8214
8060
8090
8186
7978
8278
7924
8308
7930
8269
8005
8164
8092
8045
8175
7996
8201
8006
8156
8089
8059
8189
7940
8286
7859
8350
7848
8325
7909
8233
8029
8129
8140
8018
8217
7980
8218
7985
8159
8071
8064
8184
7979
8257
7935
8253
7966
8198
8059
8078
8177
7964
8301
7896
8361
7894
8330
7937
8230
8026
8113
8135
8026
8184
8012
8182
8047
8111
8154
7998
8262
7913
8316
7861
8284
7891
8213
8006
8113
8132
8001
8237
7938
8288
7942
8255
8000
8163
8090
8053
8180
7994
8223
8004
8190
8075
8089
8165
7958
8272
7867
8340
7850
8349
7897
8272
7998
8155
8124
8049
8198
7985
8203
7986
8155
8076
8066
8187
7973
8275
7926
8284
7946
8234
8036
8126
8156
7988
8257
7904
8314
7870
8304
7916
8222
8028
8132
8126
8036
8183
7998
8176
8035
8119
8143
8018
8258
7920
8343
7864
8331
7885
8268
7972
8164
8120
8058
8220
7967
8271
7959
8254
8013
8164
8101
8062
8200
7993
8240
7983
8214
8056
8129
8164
8005
8268
7904
8348
7864
8359
7888
8283
7975
8178
8095
8076
8189
8007
8210
8009
8163
8073
8061
8182
7970
8291
7927
8313
7917
8250
7990
8160
8126
8039
8235
7934
8299
7899
8307
7936
8241
8019
8148
8131
8041
8197
8009
8205
8042
8139
8130
8022
8233
7920
8326
7869
8353
7882
8301
7951
8195
8077
8081
8174
7981
8239
7964
8239
8002
8161
8095
8052
8204
7987
8262
7954
8227
7998
8149
8115
8039
8239
7926
8332
7884
8362
7886
8307
7966
8209
8083
8095
8156
8000
8175
8009
8163
8069
8074
8184
7981
8290
7913
8331
7900
8297
7966
8201
8086
8084
8193
7964
8276
7914
8299
7941
8237
8013
8135
8109
8037
8200
7989
8206
8017
8163
8112
8059
8222
7945
8326
7871
8362
7869
8341
7941
8240
8050
8115
8158
8014
8219
7983
8231
8011
8165
8102
8057
8208
7973
8279
7950
8270
7983
8186
8071
8066
8194
7951
8301
7889
8347
7893
8322
7957
8203
8043
8102
8145
8021
8188
8009
8176
8059
8085
8174
7985
8275
7910
8346
7893
8336
7943
8250
8051
8143
8184
8019
8265
7955
8295
7965
8254
8033
8155
8123
8052
8203
7989
8228
8001
8185
8079
8073
8182
7939
8267
7842
8321
7830
8323
7894
8252
8013
8152
8136
8046
8195
7990
8207
8008
8151
8094
8042
8202
7967
8285
7921
8284
7948
8230
8050
8129
8176
8017
8288
7931
8353
7914
8328
7967
8251
8056
8136
8156
8048
8217
8030
8205
8074
8133
8173
8000
8263
7909
8343
7864
8344
7910
8278
7994
8162
8126
8056
8224
7976
8269
7969
8246
8026
8144
8107
8032
8187
7959
8234
7974
8213
8059
8128
8168
7995
8276
7906
8356
7877
8372
7905
8284
7997
8184
8117
8069
8187
8004
8187
8016
8152
8092
8058
8204
7967
8299
7919
8331
7932
8280
8024
8174
8128
8042
8230
7938
8299
7912
8305
7946
8232
8031
8106
8123
8034
8195
7995
8195
8042
8132
8139
8019
8249
7916
8331
7853
8357
7881
8313
7973
8212
8102
8095
8196
8001
8247
7986
8235
8031
8152
8114
8049
8225
7981
8281
7960
8244
8011
8162
8132
8052
8246
7934
8334
7872
8351
7898
8304
7975
8193
8081
8075
8160
8007
8180
8019
8170
8089
8077
8212
7988
8308
7902
8322
7880
8285
7960
8206
8091
8103
8214
7988
8291
7941
8305
7968
8231
8039
8134
8123
8035
8211
7995
8221
8032
8168
8122
8062
8227
7947
8335
7883
8382
7880
8334
7945
8243
8056
8116
8161
8015
8200
7970
8206
8029
8143
8103
8026
8200
7953
8285
7935
8272
7973
8200
8088
8085
8203
7968
8311
7905
8358
7918
8332
7985
8233
8081
8122
8177
8040
8228
8038
8193
8093
8104
8200
7991
8305
7909
8357
7888
8341
7936
8250
8051
8130
8163
8013
8246
7948
8271
7951
8215
8022
8114
8111
8022
8199
7974
8228
7997
8192
8090
8094
8200
7961
8303
7889
8375
7884
8366
7938
8267
8029
8152
8140
8056
8216
8019
8232
8044
8155
8127
8043
8227
7968
8304
7918
8315
7955
8243
8058
8130
8172
7999
8274
7918
8334
7913
8305
7968
8211
8050
8095
8150
8020
8190
8007
8191
8066
8111
8173
7993
8280
7912
8358
7873
8357
7915
8295
8025
8184
8147
8076
8242
7987
8276
7985
8228
8048
8143
8150
8043
8243
7987
8259
7987
8234
8082
8143
8191
8005
8283
7908
8350
7860
8345
7900
8267
8000
8168
8116
8057
8183
8009
8206
8040
8155
8124
8055
8232
7967
8322
7917
8338
7935
8279
8021
8177
8152
8063
8255
7957
8310
7922
8302
7964
8225
8061
8116
8161
8041
8232
8015
8214
8053
8138
8154
8013
8259
7919
8362
7879
8379
7897
8318
7985
8204
8094
8087
8192
7998
8237
7987
8205
8032
8124
8138
8031
8229
7960
8283
7954
8247
8016
8157
8126
8043
8248
7932
8339
7884
8354
7910
8299
7992
8191
8105
8090
8194
8036
8228
8050
8177
8127
8071
8224
7966
8311
7896
8347
7900
8304
7964
8207
8083
8084
8202
7986
8275
7935
8286
7962
8215
8036
8097
8126
8008
8206
7983
8215
8024
8164
8127
8058
8238
7940
8343
7882
8381
7891
8354
7964
8245
8081
8132
8176
8031
8229
8004
8219
8055
8155
8153
8042
8252
7972
8316
7950
8291
7988
8207
8104
8093
8218
7971
8315
7914
8354
7923
8313
7969
8187
8067
8087
8177
8020
8205
8020
8175
8095
8086
8191
7973
8308
7897
8357
7877
8339
7937
8250
8051
8135
8180
8046
8275
7994
8300
7997
8237
8071
8127
8159
8035
8246
7989
8257
8003
8195
8086
8086
8190
7953
8297
7876
8361
7874
8348
7938
8256
8032
8143
8143
8044
8203
8010
8204
8040
8138
8143
8039
8244
7957
8325
7926
8328
7955
8253
8053
8138
8184
8026
8277
7945
8344
7928
8309
7986
8212
8073
8106
8179
8031
8231
8024
8207
8094
8123
8190
8011
8309
7921
8378
7879
8366
7914
8282
8015
8176
8137
8058
8213
7985
8248
7984
8211
8052
8121
8160
8026
8243
7974
8284
7980
8234
8064
8134
8174
8006
8288
7920
8370
7890
8366
7943
8291
8026
8177
8131
8072
8202
8029
8215
8054
8171
8153
8067
8254
7961
8327
7900
8328
7910
8274
7999
8167
8127
8054
8236
7955
8294
7933
8287
7972
8212
8073
8114
8176
8026
8240
8003
8209
8050
8138
8159
8023
8277
7935
8375
7894
8395
7924
8328
8002
8222
8114
8099
8194
8012
8239
7998
8217
8068
8146
8177
8037
8272
7971
8304
7959
8263
8019
8176
8139
8055
8253
7939
8332
7888
8345
7919
8281
7999
8174
8101
8065
8178
8021
8201
8033
8161
8122
8062
8228
7956
8324
7899
8359
7900
8316
7976
8220
8098
8103
8213
8004
8281
7969
8295
7995
8222
8087
8119
8183
8036
8258
8002
8249
8033
8177
8141
8060
8247
7947
8351
7879
8380
7889
8346
7958
8236
8074
8122
8164
8024
8212
8006
8202
8052
8117
8155
8018
8249
7955
8324
7943
8298
7981
8206
8093
8097
8226
7988
8321
7926
8356
7935
8306
8007
8202
8100
8092
8193
8037
8226
8038
8188
8122
8108
8234
7985
8334
7907
8372
7887
8352
7941
8252
8060
8143
8177
8027
8251
7973
8258
7987
8202
8065
8105
8167
8022
8251
7980
8264
8012
8206
8093
8093
8212
7978
8324
7909
8383
7898
8359
7951
8268
8052
8156
8157
8048
8216
8017
8213
8063
8146
8160
8033
8255
7944
8323
7907
8328
7952
8255
8062
8139
8187
8026
8275
7941
8326
7937
8290
7993
8204
8089
8096
8187
8028
8238
8022
8192
8075
8101
8192
8002
8304
7916
8380
7882
8376
7930
8293
8018
8187
8146
8079
8232
8006
8257
8010
8220
8088
8119
8189
8033
8279
7970
8294
7974
8236
8058
8127
8160
7995
8274
7908
8354
7890
8353
7942
8272
8022
8163
8126
8059
8190
8018
8196
8059
8153
8154
8047
8263
7953
8341
7895
8347
7923
8293
8027
8203
8150
8088
8266
7992
8318
7959
8301
8008
8219
8107
8118
8205
8038
8257
8012
8224
8053
8140
8163
8023
8271
7909
8348
7866
8377
7896
8307
7990
8208
8112
8093
8187
8008
8223
8005
8204
8061
8112
8179
8025
8284
7965
8321
7949
8273
8028
8176
8137
8063
8264
7961
8346
7915
8364
7944
8297
8023
8189
8130
8079
8207
8035
8226
8052
8167
8140
8063
8250
7968
8350
7902
8373
7907
8323
7981
8227
8097
8107
8211
8009
8275
7968
8276
8001
8201
8082
8089
8179
8015
8259
7995
8253
8031
8183
8136
8065
8253
7949
8353
7893
8390
7902
8344
7975
8236
8089
8136
8179
8046
8228
8033
8211
8083
8134
8184
8025
8284
7953
8336
7940
8325
7995
8228
8097
8103
8215
7982
8304
7934
8342
7931
8286
7995
8174
8086
8070
8179
8008
8210
8027
8181
8124
8098
8242
7989
8338
7899
8381
7889
8358
7948
8270
8062
8155
8185
8047
8254
7989
8270
8014
8209
8093
8108
8200
8027
8288
7984
8280
8012
8219
8113
8109
8224
7983
8319
7896
8372
7886
8339
7940
8242
8037
8134
8149
8045
8207
8026
8197
8070
8136
8176
8035
8271
7942
8340
7908
8337
7956
8274
8067
8157
8187
8042
8282
7968
8336
7960
8293
8019
8198
8109
8095
8208
8032
8251
8029
8210
8109
8125
8206
7999
8302
7900
8378
7877
8368
7923
8288
8014
8178
8139
8066
8219
7997
8227
8004
8187
8076
8093
8197
8016
8282
7960
8301
7971
8246
8070
8157
8186
8031
8299
7931
8362
7914
8360
7967
8281
8051
8176
8162
8082
8230
8049
8226
8073
8150
8167
8044
8266
7957
8361
7909
8369
7941
8299
8020
8197
8148
8075
8234
7965
8258
7923
8242
7978
8164
8083
8071
8196
8014
8255
8007
8229
8072
8145
8169
8023
8285
7933
8380
7886
8389
7921
8333
8005
8215
8117
8109
8210
8036
8258
8038
8210
8099
8125
8209
8016
8292
7950
8321
7950
8281
8033
8188
8139
8071
8260
7962
8345
7931
8350
7944
8268
8017
8171
8132
8075
8195
8021
8211
8051
8164
8144
8053
8249
7949
8347
7898
8390
7912
8351
7986
8233
8097
8111
8208
8020
8281
7988
8269
8016
8191
8106
8095
8209
8018
8281
7994
8269
8046
8199
8154
8081
8267
7962
8352
7887
8377
7900
8327
7959
8220
8073
8110
8177
8034
8214
8020
8197
8088
8123
8199
8017
8294
7936
8347
7937
8323
7982
8233
8106
8121
8228
8007
8317
7948
8343
7956
8284
8020
8177
8127
8084
8209
8028
8235
8042
8187
8132
8095
8236
7973
8340
7896
8384
7887
8350
7943
8259
8071
8152
8169
8038
8230
7980
8241
8005
8177
8097
8092
8211
8013
8294
7982
8289
8008
8219
8105
8110
8225
7990
8329
7929
8389
7920
8361
7983
8264
8070
8156
8180
8072
8236
8050
8217
8088
8143
8197
8031
8303
7941
8356
7910
8353
7948
8262
8050
8141
8172
8033
8269
7959
8308
7957
8273
8016
8176
8112
8073
8205
8010
8244
8021
8211
8100
8123
8207
7999
8317
7903
8389
7897
8390
7936
8298
8035
8190
8155
8084
8223
8019
8256
8035
8203
8114
8111
8230
8021
8311
7959
8312
7970
8250
8053
8147
8177
8027
8286
7931
8350
7909
8336
7952
8252
8045
8149
8140
8048
8202
8030
8206
8063
8143
8171
8038
8282
7946
8358
7908
8370
7938
8316
8041
8214
8161
8095
8254
8002
8304
7981
8280
8040
8197
8142
8091
8231
8019
8269
8003
8234
8061
8139
8165
8012
8279
7923
8372
7889
8385
7919
8328
8006
8197
8114
8094
8194
8021
8224
8038
8201
8113
8120
8221
8007
8310
7939
8332
7940
8284
8005
8181
8125
8058
8241
7949
8328
7924
8330
7958
8284
8062
8184
8153
8078
8226
8044
8239
8072
8180
8171
8072
8270
7968
8362
7901
8389
7910
8340
7979
8231
8104
8119
8213
8011
8254
7985
8255
8023
8177
8112
8075
8217
8011
8289
7984
8255
8024
8184
8142
8071
8269
7970
8374
7913
8396
7927
8350
7999
8226
8096
8122
8183
8042
8237
8047
8205
8110
8119
8206
8006
8305
7938
8356
7925
8324
7989
8235
8102
8116
8224
8001
8300
7945
8321
7961
8269
8030
8167
8138
8068
8222
8019
8244
8050
8185
8124
8081
8233
7962
8346
7901
8404
7909
8371
7971
8279
8084
8162
8194
8054
8253
8017
8260
8048
8187
8122
8073
8227
7997
8305
7975
8297
8002
8224
8113
8106
8225
7982
8319
7910
8369
7909
8336
7963
8231
8069
8124
8164
8041
8209
8033
8197
8087
8120
8194
8011
8300
7922
8360
7903
8354
7955
8273
8071
8169
8196
8058
8290
7993
8325
7980
8284
8057
8190
8160
8088
8250
8020
8275
8031
8215
8116
8133
8229
8010
8344
7917
8393
7884
8367
7937
8283
8037
8172
8146
8060
8214
8009
8237
8034
8182
8129
8078
8240
8006
8319
7952
8327
7966
8254
8060
8153
8195
8038
8303
7945
8355
7920
8333
7965
8241
8066
8156
8182
8070
8241
8048
8222
8086
8140
8183
8024
8280
7933
8366
7891
8373
7920
8298
8024
8190
8144
8081
8240
7987
8266
7973
8255
8039
8164
8145
8063
8226
7996
8276
8001
8239
8068
8145
8183
8041
8307
7945
8388
7904
8392
7934
8315
8027
8207
8132
8097
8206
8029
8239
8044
8187
8134
8099
8237
8004
8328
7943
8356
7950
8297
8034
8198
8154
8062
8252
7962
8323
7928
8320
7955
8230
8048
8150
8152
8058
8230
8026
8228
8068
8165
8172
8064
8277
7951
8376
7906
8399
7919
8348
7997
8242
8122
8120
8224
8032
8276
8015
8268
8064
8185
8170
8095
8274
8018
8306
7990
8277
8047
8187
8145
8057
8243
7938
8337
7888
8360
7901
8308
7980
8203
8098
8104
8186
8034
8232
8049
8187
8119
8090
8219
7994
8315
7921
8358
7923
8334
7998
8245
8120
8125
8239
8021
8319
7965
8323
7985
8267
8059
8167
8168
8071
8250
8033
8253
8052
8193
8143
8086
8250
7969
8346
7895
8392
7895
8363
7967
8263
8078
8151
8185
8039
8231
8000
8224
8036
8158
8138
8060
8243
7993
8320
7961
8305
8001
8224
8106
8118
8235
8001
8336
7939
8376
7928
8332
7985
8231
8083
8137
8198
8065
8249
8067
8220
8127
8127
8216
7999
8323
7929
8378
7907
8366
7966
8282
8071
8146
8181
8044
8268
7959
8279
7971
8233
8043
8145
8153
8049
8241
8011
8257
8023
8223
8115
8120
8230
7994
8347
7928
8410
7911
8390
7960
8286
8045
8176
8158
8076
8240
8032
8252
8065
8182
8150
8079
8244
7988
8329
7944
8332
7982
8262
8070
8153
8194
8028
8294
7943
8338
7920
8315
7971
8224
8070
8126
8169
8046
8231
8031
8210
8090
8141
8200
8032
8306
7937
8381
7905
8389
7940
8312
8044
8205
8164
8095
8262
8014
8298
8015
8256
8066
8166
8173
8063
8262
8008
8291
8010
8252
8093
8150
8195
8030
8305
7937
8380
7894
8368
7925
8286
8009
8172
8126
8073
8207
8025
8226
8048
8178
8156
8088
8258
7999
8346
7940
8362
7953
8289
8031
8188
8154
8081
8278
7974
8334
7943
8306
7976
8236
8076
8149
8182
8055
8247
8024
8228
8070
8156
8185
8053
8291
7944
8371
7893
8396
7918
8323
7997
8213
8119
8110
8217
8013
8254
8010
8245
8067
8163
8166
8054
8269
7986
8306
7981
8268
8052
8187
8168
8072
8287
7965
8370
7908
8374
7929
8308
8008
8205
8131
8112
8223
8055
8255
8070
8196
8148
8103
8251
7994
8342
7927
8370
7922
8324
7996
8224
8108
8108
8227
7996
8298
7959
8309
7987
8244
8069
8137
8169
8036
8248
8008
8235
8045
8177
8156
8081
8276
7975
8383
7908
8395
7902
8360
7985
8261
8107
8149
8197
8048
8252
8020
8240
8065
8157
8167
8046
8263
7971
8315
7951
8299
8009
8224
8125
8113
8252
7994
8330
7925
8360
7925
8313
7998
8211
8112
8120
8189
8037
8212
8032
8173
8105
8085
8209
7982
8324
7916
8389
7918
8378
7987
8287
8098
8168
8214
8055
8280
7991
8305
8014
8262
8087
8153
8196
8057
8266
8010
8272
8034
8218
8131
8107
8240
7981
8333
7902
8391
7895
8367
7957
8259
8058
8153
8156
8042
8217
8018
8216
8063
8157
8160
8054
8260
7966
8340
7945
8344
7981
8268
8101
8161
8231
8040
8317
7963
8360
7951
8330
8008
8231
8100
8130
8198
8053
8242
8034
8196
8095
8117
8211
8007
8323
7923
8386
7895
8374
7936
8285
8040
8178
8148
8055
8230
7986
8263
7998
8221
8079
8145
8185
8044
8271
7989
8291
7995
8239
8093
8143
8217
8040
8331
7941
8397
7916
8383
7962
8308
8055
8196
8164
8090
8241
8054
8246
8078
8183
8173
8079
8272
7988
8360
7939
8372
7955
8298
8054
8189
8171
8070
8272
7961
8308
7933
8292
7987
8209
8067
8098
8177
8031
8244
8032
8220
8081
8138
8182
8021
8292
7935
8393
7901
8405
7936
8337
8028
8235
8144
8109
8234
8041
8280
8033
8246
8093
8157
8187
8038
8285
7978
8314
7985
8271
8058
8181
8167
8059
8286
7954
8364
7915
8369
7937
8283
8012
8177
8125
8074
8199
8035
8213
8061
8168
8145
8071
8250
7972
8347
7919
8376
7939
8337
8012
8237
8146
8112
8242
8006
8316
7972
8305
8020
8241
8107
8128
8210
8049
8264
8028
8255
8064
8186
8171
8075
8277
7957
8371
7900
8394
7902
8344
7970
8220
8073
8098
8164
8016
8218
8013
8216
8082
8152
8190
8037
8281
7968
8332
7953
8305
8020
8228
8145
8113
8257
8001
8349
7944
8372
7955
8320
8025
8216
8139
8116
8220
8054
8249
8062
8194
8138
8102
8243
7988
8347
7919
8390
7906
8356
7972
8261
8092
8143
8190
8018
8254
7977
8277
8004
8221
8096
8115
8204
8043
8285
8010
8279
8033
8209
8129
8097
8255
7998
8369
7926
8411
7926
8368
7965
8262
8074
8157
8179
8069
8244
8053
8244
8097
8159
8190
8057
8294
7975
8357
7943
8346
7984
8255
8078
8135
8199
8005
8295
7936
8323
7932
8287
7999
8195
8097
8098
8193
8036
8253
8039
8201
8115
8114
8216
8010
8345
7930
8402
7904
8384
7951
8295
8058
8185
8176
8082
8261
8020
8286
8037
8231
8113
8140
8214
8044
8293
8000
8308
8004
8241
8093
8131
8200
8008
8309
7924
8374
7908
8365
7949
8267
8047
8170
8159
8074
8230
8051
8226
8078
8153
8159
8034
8270
7958
8353
7923
8368
7962
8309
8060
8190
8177
8073
8286
8000
8344
7981
8318
8029
8226
8129
8119
8217
8049
8268
8036
8229
8092
8137
8193
8018
8303
7923
8381
7892
8389
7921
8310
8009
8193
8121
8076
8204
8010
8231
8017
8200
8085
8120
8208
8025
8290
7972
8327
7985
8283
8076
8186
8196
8064
8304
7977
8388
7936
8371
7964
8309
8055
8188
8155
8083
8219
8040
8222
8066
8163
8168
8059
8266
7957
8357
7911
8378
7924
8321
8023
8206
8123
8084
8238
8001
8295
7978
8289
8010
8201
8099
8096
8205
8029
8268
8004
8237
8063
8161
8174
8056
8297
7970
8396
7916
8422
7940
8363
8024
8249
8136
8144
8232
8065
8272
8058
8228
8106
8130
8199
8016
8288
7952
8346
7961
8306
8031
8210
8137
8087
8250
7975
8342
7932
8351
7951
8296
8036
8186
8136
8084
8215
8040
8234
8071
8188
8155
8076
8253
7967
8354
7909
8392
7914
8347
7975
8246
8102
8140
8218
8038
8280
8007
8298
8044
8229
8140
8125
8225
8029
8284
7998
8270
8039
8198
8137
8093
8261
7971
8360
7909
8391
7914
8346
7977
8243
8090
8131
8192
8055
8240
8049
8224
8107
8139
8197
8022
8297
7944
8354
7932
8328
7997
8255
8114
8145
8232
8031
8323
7970
8356
7982
8304
8042
8198
8145
8100
8234
8055
8266
8065
8212
8135
8111
8240
7986
8343
7903
8390
7895
8369
7955
8277
8065
8153
8168
8041
8231
7990
8250
8016
8187
8104
8095
8209
8011
8299
7979
8292
8018
8241
8123
8143
8251
8031
8348
7941
8399
7929
8363
7984
8273
8089
8163
8184
8069
8246
8052
8223
8094
8153
8203
8038
8308
7957
8367
7915
8357
7957
8280
8060
8171
8189
8046
8268
7964
8307
7954
8275
8019
8183
8118
8088
8227
8034
8274
8037
8226
8116
8132
8231
8028
8351
7942
8419
7910
8400
7956
8310
8050
8199
8168
8102
8240
8036
8263
8044
8208
8126
8106
8225
8012
8308
7961
8319
7980
8267
8076
8159
8184
8035
8291
7936
8361
7917
8336
7948
8251
8033
8138
8149
8062
8219
8036
8212
8079
8164
8188
8060
8302
7974
8387
7927
8396
7952
8332
8053
8229
8164
8097
8249
8001
8309
7991
8286
8046
8202
8144
8098
8228
8020
8269
8006
8246
8084
8165
8188
8045
8303
7948
8394
7897
8392
7914
8306
8001
8196
8114
8099
8201
8026
8246
8042
8197
8112
8106
8220
8018
8313
7956
8356
7969
8314
8057
8216
8165
8095
8289
7997
8363
7957
8361
7983
8293
8067
8186
8168
8088
8245
8051
8246
8078
8180
8177
8075
8272
7962
8365
7907
8389
7916
8336
7989
8237
8114
8111
8211
8019
8267
7993
8259
8042
8189
8145
8091
8230
8014
8295
7994
8264
8057
8197
8168
8090
8285
7983
8377
7914
8396
7935
8351
8002
8242
8117
8136
8212
8065
8257
8072
8220
8131
8128
8223
8022
8326
7953
8377
7949
8333
8000
8242
8123
8113
8232
8000
8300
7937
8315
7952
8265
8031
8162
8141
8069
8221
8024
8238
8053
8186
8141
8096
8266
7988
8374
7927
8414
7917
8386
7987
8282
8100
8156
8197
8052
8271
8036
8278
8065
8196
8147
8084
8237
8008
8311
7977
8293
8021
8224
8122
8107
8236
7976
8331
7918
8378
7918
8331
7978
8226
8076
8126
8180
8045
8229
8047
8207
8118
8131
8218
8026
8342
7956
8382
7927
8366
7981
8284
8102
8172
8227
8068
8316
8002
8340
7995
8284
8062
8181
8173
8081
8244
8025
8266
8043
8216
8123
8116
8237
7999
8349
7909
8384
7883
8367
7939
8280
8049
8167
8168
8071
8236
8029
8242
8037
8162
8113
8073
8235
7999
8322
7966
8333
8006
8268
8103
8162
8231
8048
8328
7954
8383
7938
8351
7998
8263
8094
8161
8195
8079
8256
8055
8231
8119
8151
8207
8033
8317
7942
8378
7904
8373
7943
8293
8048
8184
8157
8067
8252
7981
8291
7991
8262
8052
8174
8164
8084
8263
8024
8292
8020
8239
8100
8148
8217
8044
8334
7945
8400
7906
8390
7942
8304
8032
8205
8156
8109
8244
8051
8256
8063
8193
8148
8093
8246
8002
8336
7943
8337
7954
8276
8040
8174
8155
8054
8264
7953
8335
7930
8330
7976
8245
8073
8159
8179
8065
8252
8043
8226
8080
8153
8183
8044
8291
7964
8392
7922
8405
7944
8337
8023
8234
8139
8114
8240
8027
8291
8021
8276
8073
8183
8168
8087
8273
8021
8313
8004
8269
8069
8183
8175
8064
8282
7946
8377
7910
8379
7923
8322
8007
8202
8116
8106
8203
8039
8239
8056
8199
8146
8111
8238
7994
8342
7953
8389
7964
8347
8039
8240
8149
8118
8257
8010
8340
7972
8341
8006
8284
8083
8175
8186
8073
8254
8036
8247
8071
8188
8160
8086
8273
7957
8363
7895
8395
7898
8350
7979
8242
8095
8127
8191
8035
8238
8009
8242
8057
8173
8163
8074
8268
7992
8316
7983
8304
8046
8229
8157
8116
8271
7992
8360
7920
8376
7939
8341
8019
8246
8126
8138
8195
8050
8235
8051
8202
8132
8115
8232
8006
8341
7930
8385
7930
8358
7983
8263
8099
8132
8198
8019
8280
7966
8301
7980
8241
8060
8150
8170
8056
8253
8021
8263
8045
8209
8137
8109
8265
7995
8367
7923
8415
7918
8395
7983
8282
8082
8165
8188
8077
8254
8043
8254
8080
8180
8174
8074
8275
7993
8324
7959
8315
7994
8246
8103
8132
8224
8008
8310
7934
8357
7923
8317
7991
8222
8090
8126
8187
8053
8244
8045
8204
8115
8133
8234
8037
8362
7963
8412
7922
8388
7971
8305
8083
8184
8187
8073
8280
8010
8310
8014
8263
8082
8163
8181
8059
8276
8013
8295
8026
8230
8111
8128
8228
8006
8332
7916
8385
7896
8373
7955
8286
8053
8183
8160
8069
8219
8017
8218
8061
8164
8159
8067
8267
7990
8352
7955
8367
7986
8288
8082
8176
8200
8061
8300
7958
8346
7944
8328
8006
8244
8106
8154
8208
8068
8263
8057
8230
8115
8149
8208
8036
8313
7941
8389
7900
8399
7941
8316
8032
8188
8136
8072
8226
8001
8263
8002
8227
8072
8147
8181
8051
8269
7992
8303
8002
8262
8098
8180
8216
8061
8326
7962
8402
7931
8401
7967
8331
8056
8215
8169
8117
8234
8062
8256
8089
8184
8156
8061
8246
7963
8336
7922
8365
7949
8311
8035
8204
8156
8076
8257
7980
8316
7952
8311
7992
8234
8090
8140
8193
8054
8264
8038
8245
8092
8173
8194
8066
8307
7962
8396
7916
8411
7931
8346
8013
8232
8136
8126
8230
8051
8282
8039
8254
8090
8152
8194
8056
8291
7996
8335
7989
8290
8058
8191
8165
8080
8284
7969
8363
7919
8361
7927
8282
8004
8180
8121
8080
8199
8039
8224
8055
8174
8149
8090
8249
7988
8360
7935
8396
7950
8362
8015
8255
8137
8132
8238
8020
8305
7980
8315
8018
8243
8099
8147
8203
8060
8285
8035
8275
8081
8197
8162
8086
8274
7966
8373
7907
8397
7900
8333
7962
8231
8085
8125
8179
8042
8239
8029
8228
8088
8150
8185
8045
8289
7978
8346
7975
8332
8043
8251
8148
8127
8257
8010
8351
7945
8375
7959
8330
8034
8230
8140
8116
8211
8051
8250
8056
8202
8141
8108
8243
7997
8341
7916
8383
7907
8359
7959
8261
8073
8135
8189
8030
8264
7979
8281
8008
8219
8091
8122
8204
8044
8277
8002
8282
8042
8233
8148
8119
8266
8013
8381
7939
8414
7919
8372
7979
8284
8093
8182
8202
8093
8257
8070
8255
8090
8159
8193
8058
8288
7970
8357
7933
8337
7972
8251
8076
8136
8196
8009
8292
7942
8338
7952
8305
8011
8215
8116
8117
8210
8047
8253
8042
8203
8120
8128
8233
8019
8352
7938
8407
7925
8401
7969
8307
8069
8194
8181
8081
8262
8022
8282
8030
8229
8118
8146
8219
8060
8310
8004
8318
8013
8236
8088
8123
8201
7994
8305
7926
8370
7899
8352
7952
8272
8052
8167
8169
8079
8234
8055
8247
8095
8168
8193
8064
8308
7986
8381
7948
8396
7998
8335
8087
8194
8186
8073
8280
7982
8343
7981
8318
8019
8209
8107
8104
8203
8036
8255
8031
8229
8105
8143
8205
8026
8319
7929
8392
7897
8392
7923
8305
8016
8193
8133
8088
8219
8019
8255
8036
8214
8098
8135
8214
8038
8303
7990
8331
7998
8282
8087
8182
8202
8061
8321
7973
8395
7939
8383
7975
8310
8070
8197
8171
8107
8240
8065
8242
8090
8178
8185
8072
8282
7971
8361
7913
8373
7931
8304
8010
8200
8140
8087
8243
7990
8301
7964
8288
8024
8213
8120
8118
8237
8046
8279
8034
8261
8089
8171
8193
8063
8307
7952
8391
7912
8402
7925
8339
8012
8236
8139
8131
8226
8049
8264
8058
8226
8114
8138
8217
8031
8303
7956
8327
7960
8295
8045
8202
8148
8079
8263
7967
8337
7917
8342
7949
8283
8032
8182
8146
8090
8221
8051
8246
8086
8192
8177
8101
8284
7993
8382
7929
8409
7939
8362
8007
8246
8130
8138
8236
8043
8295
8014
8305
8049
8218
8146
8114
8229
8029
8291
8011
8274
8048
8193
8158
8086
8286
7972
8371
7906
8395
7906
8335
7983
8234
8102
8131
8195
8053
8254
8052
8214
8106
8129
8205
8026
8309
7967
8378
7959
8330
8012
8247
8133
8129
8247
8021
8344
7965
8363
7986
8309
8052
8206
8158
8097
8228
8040
8244
8059
8195
8147
8110
8254
7988
8359
7917
8401
7902
8358
7955
8258
8074
8138
8164
8022
8236
7991
8257
8029
8200
8120
8102
8226
8020
8296
7978
8285
8020
8229
8139
8125
8260
8005
8362
7931
8393
7926
8363
7995
8267
8104
8168
8197
8083
8258
8059
8223
8105
8150
8212
8035
8319
7962
8377
7931
8359
7973
8275
8090
8149
8200
8037
8292
7965
8333
7976
8299
8051
8198
8155
8097
8236
8038
8266
8044
8220
8121
8125
8235
8004
8349
7931
8411
7916
8397
7957
8298
8072
8200
8189
8107
8258
8046
8280
8066
8215
8148
8112
8245
8023
8322
7982
8324
7999
8253
8086
8141
8203
8029
8308
7931
8357
7909
8346
7972
8253
8071
8165
8180
8086
8250
8062
8227
8088
8139
8190
8033
8316
7968
8389
7928
8393
7967
8320
8064
8205
8180
8092
8277
8002
8323
7996
8283
8052
8194
8149
8098
8252
8033
8289
8033
8246
8102
8152
8206
8035
8319
7939
8395
7899
8382
7920
8295
8009
8202
8140
8108
8230
8046
8265
8061
8200
8123
8108
8232
8006
8317
7957
8353
7973
8293
8070
8198
8193
8086
8305
7988
8368
7944
8358
7990
8282
8080
8179
8175
8080
8241
8047
8232
8087
8169
8189
8059
8296
7962
8378
7906
8396
7926
8320
8006
8213
8132
8097
8227
8008
8291
8000
8270
8046
8186
8147
8083
8238
8018
8296
8015
8275
8091
8192
8194
8074
8296
7959
8391
7911
8389
7929
8340
8018
8239
8146
8135
8229
8066
8268
8075
8226
8155
8140
8248
8024
8336
7958
8366
7947
8310
8007
8211
8126
8086
8227
7966
8299
7931
8314
7959
8255
8045
8158
8163
8078
8248
8046
8243
8070
8183
8169
8089
8284
7982
8386
7936
8424
7928
8368
7992
8254
8111
8142
8223
8064
8301
8038
8279
8074
8214
8174
8095
8259
8008
8303
7987
8286
8038
8208
8151
8093
8267
7975
8355
7908
8373
7911
8325
7993
8225
8113
8125
8199
8052
8249
8061
8215
8135
8130
8241
8019
8347
7962
8392
7951
8372
8015
8274
8127
8164
8235
8042
8320
7979
8335
7997
8285
8084
8191
8184
8077
8247
8028
8254
8047
8191
8136
8093
8255
7987
8357
7914
8396
7901
8364
7951
8252
8058
8137
8160
8049
8237
8019
8258
8067
8191
8159
8085
8255
8007
8329
7986
8335
8031
8258
8133
8132
8239
8008
8335
7942
8382
7945
8350
8011
8262
8115
8157
8209
8078
8260
8066
8227
8130
8137
8228
8030
8326
7941
8386
7917
8372
7963
8286
8068
8158
8178
8052
8271
7980
8304
7996
8267
8071
8174
8171
8074
8258
8018
8270
8037
8234
8127
8143
8246
8024
8361
7940
8421
7917
8384
7951
8299
8068
8193
8174
8096
8254
8055
8264
8077
8195
8165
8098
8267
8012
8343
7957
8336
7975
8263
8069
8158
8194
8040
8289
7943
8336
7926
8315
7982
8248
8089
8150
8185
8057
8235
8043
8217
8108
8149
8212
8049
8329
7957
8399
7923
8404
7965
8341
8067
8220
8174
8100
8264
8021
8306
8032
8279
8088
8182
8181
8071
8271
8004
8300
8013
8247
8092
8158
8203
8047
8318
7949
8393
7907
8385
7939
8301
8025
8191
8145
8106
8218
8046
8243
8063
8183
8146
8085
8262
8005
8362
7961
8381
7973
8317
8055
8211
8170
8085
8270
7987
8349
7968
8335
8001
8264
8096
8160
8193
8073
8262
8047
8247
8093
8170
8181
8061
8291
7952
8383
7901
8400
7916
8331
7998
8231
8121
8106
8203
8020
8259
8019
8257
8074
8170
8176
8059
8266
7991
8313
7995
8296
8077
8211
8178
8091
8287
7974
8373
7926
8391
7950
8338
8033
8228
8143
8129
8227
8066
8255
8076
8203
8147
8105
8238
7987
8340
7935
8376
7934
8341
8006
8244
8123
8119
8231
8010
8297
7961
8314
7998
8247
8088
8159
8191
8067
8262
8032
8269
8070
8205
8170
8105
8288
7981
8384
7930
8421
7923
8373
7987
8273
8114
8168
8218
8066
8265
8043
8260
8090
8181
8192
8077
8284
7991
8335
7963
8303
8015
8216
8118
8101
8231
7982
8312
7911
8346
7927
8314
8008
8224
8121
8129
8211
8060
8250
8057
8202
8127
8119
8237
8017
8353
7946
8408
7939
8392
7995
8288
8093
8166
8209
8063
8291
8003
8317
8025
8267
8101
8168
8191
8061
8277
8025
8281
8035
8211
8123
8115
8231
7987
8348
7910
8390
7891
8365
7952
8272
8060
8162
8172
8075
8247
8048
8248
8090
8186
8191
8085
8303
8011
8375
7973
8358
8003
8281
8102
8170
8218
8045
8316
7967
8365
7961
8330
8011
8243
8124
8146
8209
8063
8251
8054
8223
8123
8131
8210
8007
8313
7925
8394
7907
8382
7944
8297
8044
8175
8158
8072
8246
8003
8282
8023
8254
8090
8162
8198
8061
8286
8008
8309
8022
8260
8114
8167
8233
8049
8343
7950
8409
7930
8396
7972
8313
8061
8191
8156
8086
8228
8047
8245
8083
8186
8175
8077
8272
7983
8359
7939
8367
7957
8301
8048
8183
8160
8056
8257
7962
8318
7949
8311
8003
8230
8105
8139
8202
8067
8266
8043
8242
8111
8175
8220
8076
8337
7975
8415
7935
8418
7939
8323
8008
8216
8137
8111
8234
8036
8278
8033
8237
8091
8152
8190
8044
8280
7985
8311
7986
8275
8065
8178
8183
8068
8284
7947
8354
7904
8359
7938
8285
8030
8192
8148
8102
8222
8057
8248
8079
8194
8175
8097
8279
8000
8376
7951
8404
7963
8349
8036
8238
8147
8121
8258
8020
8327
7990
8320
8027
8250
8116
8147
8222
8067
8281
8032
8260
8081
8188
8172
8068
8293
7968
8385
7896
8399
7915
8345
7989
8230
8095
8121
8193
8031
8242
8033
8225
8093
8151
8195
8044
8288
7982
8347
7983
8324
8059
8235
8158
8108
8272
7994
8369
7955
8379
7970
8326
8037
8226
8156
8119
8230
8068
8256
8067
8199
8158
8108
8254
7990
8360
7923
8387
7916
8357
7979
8253
8100
8136
8211
8020
8276
7986
8291
8018
8223
8103
8130
8212
8046
8291
8018
8283
8055
8214
8164
8114
8278
8002
8385
7923
8403
7914
8363
7986
8271
8104
8169
8204
8079
8275
8063
8259
8110
8161
8203
8056
8305
7973
8358
7953
8341
8000
8254
8110
8122
8216
7994
8292
7934
8331
7937
8282
8005
8198
8132
8109
8216
8051
8252
8058
8217
8145
8138
8263
8022
8370
7942
8420
7929
8395
7972
8295
8082
8172
8182
8065
8266
8015
8295
8044
8231
8118
8145
8225
8046
8298
7993
8292
8025
8237
8121
8127
8233
8010
8326
7917
8379
7898
8347
7956
8261
8059
8161
8178
8076
8238
8055
8234
8105
8172
8202
8062
8320
7980
8381
7951
8376
7988
8296
8089
8184
8208
8069
8304
7987
8354
7981
8321
8042
8222
8146
8119
8222
8053
8269
8045
8226
8117
8136
8219
8017
8323
7926
8391
7894
8375
7932
8292
8032
8186
8149
8083
8229
8022
8269
8031
8225
8126
8149
8225
8041
8315
7991
8337
8015
8281
8100
8177
8224
8066
8328
7953
8373
7924
8370
7971
8295
8076
8201
8177
8093
8239
8065
8236
8087
8160
8178
8053
8271
7960
8361
7913
8374
7940
8299
8032
8192
8149
8072
8255
7982
8307
7973
8290
8035
8215
8139
8104
8225
8043
8281
8037
8263
8121
8178
8217
8063
8319
7957
8402
7923
8416
7950
8353
8042
8235
8145
8129
8239
8055
8272
8060
8236
8127
8145
8236
8046
8325
7979
8339
7966
8289
8053
8192
8163
8071
8271
7963
8345
7920
8337
7955
8273
8038
8186
8157
8089
8233
8058
8240
8090
8194
8191
8106
8304
8004
8398
7929
8401
7923
8341
8009
8248
8138
8135
8254
8040
8316
8025
8312
8057
8219
8142
8113
8232
8030
8287
7998
8249
8033
8161
8141
8053
8265
7947
8366
7899
8385
7910
8335
7981
8229
8103
8124
8199
8046
8233
8040
8213
8121
8147
8229
8043
8338
7974
8374
7972
8356
8042
8261
8155
8129
8270
8028
8357
7972
8364
7985
8305
8063
8199
8157
8109
8253
8061
8253
8076
8195
8150
8093
8252
7978
8362
7911
8389
7899
8350
7960
8248
8080
8131
8192
8046
8259
8014
8275
8048
8207
8127
8101
8233
8027
8311
8000
8305
8041
8232
8149
8124
8274
8003
8370
7939
8409
7937
8368
8007
8274
8118
8164
8203
8078
8254
8066
8222
8114
8146
8224
8041
8312
7946
8368
7931
8348
7979
8260
8079
8135
8199
8017
8289
7959
8328
7966
8290
8050
8199
8153
8098
8252
8049
8283
8065
8239
8157
8144
8274
8029
8375
7939
8421
7925
8393
7968
8295
8078
8176
8179
8081
8250
8031
8271
8057
8201
8129
8099
8234
8019
8317
7979
8324
8010
8248
8103
8137
8214
8012
8316
7936
8372
7922
8347
7978
8257
8087
8170
8188
8078
8257
8067
8236
8125
8159
8225
8052
8328
7965
8397
7939
8392
7973
8307
8066
8187
8187
8075
8283
8008
8326
8001
8298
8058
8203
8162
8094
8260
8032
8278
8031
8236
8116
8151
8228
8030
8331
7928
8387
7884
8374
7928
8295
8024
8193
8141
8091
8231
8037
8259
8060
8201
8139
8115
8251
8026
8343
7981
8363
7996
8296
8083
8191
8199
8073
8302
7970
8373
7940
8348
7983
8278
8083
8179
8190
8091
8253
8059
8242
8111
8166
8198
8060
8302
7962
8380
7907
8372
7916
8306
8007
8198
8136
8091
8237
8004
8291
7998
8268
8047
8182
8150
8079
8247
8020
8296
8022
8264
8091
8181
8208
8079
8316
7957
8393
7925
8403
7937
8332
8019
8225
8144
8134
8231
8072
8276
8077
8220
8151
8119
8244
8015
8337
7955
8363
7960
8309
8033
8202
8147
8088
8255
7986
8337
7949
8336
7986
8267
8077
8179
8183
8093
8264
8070
8270
8101
8190
8186
8093
8298
7976
8391
7921
8411
7941
8368
8012
8264
8140
8141
8231
8042
8272
8012
8266
8066
8185
8166
8089
8264
8013
8312
7991
8277
8060
8199
8159
8081
8272
7959
8357
7907
8383
7931
8330
8000
8225
8107
8113
8197
8056
8260
8069
8212
8150
8142
8260
8038
8353
7967
8398
7958
8370
8018
8263
8127
8137
8246
8030
8319
7976
8336
7994
8279
8067
8175
8177
8074
8253
8039
8254
8059
8203
8154
8096
8265
7974
8368
7907
8396
7903
8355
7964
8250
8071
8141
8180
8053
8249
8023
8258
8071
8186
8173
8096
8279
8023
8339
7993
8330
8036
8250
8142
8134
8260
8015
8360
7946
8401
7955
8356
8018
8255
8126
8154
8210
8074
8256
8055
8202
8121
8117
8221
8015
8337
7942
8387
7921
8370
7967
8272
8074
8152
8191
8041
8279
7981
8307
8002
8268
8077
8178
8184
8077
8270
8032
8273
8050
8230
8136
8132
8258
8023
8367
7935
8412
7914
8380
7963
8299
8073
8185
8181
8100
8248
8047
8260
8077
8193
8167
8081
8251
7996
8334
7955
8332
7994
8261
8089
8148
8210
8036
8308
7953
8359
7943
8334
7998
8245
8091
8145
8198
8069
8261
8067
8229
8120
8145
8224
8042
8338
7959
8412
7926
8404
7965
8318
8065
8200
8185
8098
8269
8022
8314
8024
8278
8090
8176
8184
8063
8266
8012
8297
8025
8252
8109
8155
8223
8039
8324
7926
8378
7885
8365
7934
8290
8033
8192
8155
8115
8248
8065
8258
8080
8190
8164
8088
8266
7992
8344
7945
8360
7972
8302
8058
8195
8174
8073
8288
7981
8361
7970
8348
8011
8247
8093
8155
8200
8082
8274
8059
8247
8118
8181
8211
8052
8312
7960
8391
7910
8399
7926
8320
8003
8207
8122
8094
8210
8018
8262
8012
8254
8079
8162
8183
8069
8281
8019
8331
8019
8303
8102
8206
8195
8076
8296
7961
8375
7914
8382
7947
8325
8030
8214
8143
8121
8219
8060
8252
8072
8189
8156
8107
8263
7999
8351
7935
8386
7948
8328
8025
8234
8147
8121
8268
8017
8330
7961
8308
7996
8240
8094
8156
8208
8070
8272
8044
8267
8102
8204
8197
8104
8305
7977
8382
7908
8405
7925
8365
8012
8266
8126
8150
8222
8059
8263
8037
8249
8082
8165
8187
8062
8289
7989
8336
7976
8292
8044
8208
8134
8087
8245
7961
8342
7906
8355
7936
8316
8020
8224
8136
8127
8215
8059
8251
8070
8207
8155
8118
8268
8019
8374
7956
8412
7952
8386
8017
8290
8139
8171
8248
8063
8307
7999
8300
7998
8228
8082
8153
8200
8064
8282
8030
8278
8060
8213
8148
8104
8269
7980
8359
7905
8392
7902
8358
7966
8262
8085
8152
8185
8069
8252
8051
8247
8088
8177
8196
8070
8306
8000
8364
7976
8353
8024
8265
8132
8146
8244
8036
8345
7970
8381
7964
8334
8023
8234
8133
8134
8217
8069
8256
8069
8214
8137
8122
8235
8008
8342
7925
8388
7900
8363
7950
8273
8063
8157
8180
8059
8259
8005
8297
8019
8236
8098
8154
8210
8065
8311
8040
8314
8049
8252
8138
8141
8246
8023
8348
7933
8405
7924
8389
7980
8297
8084
8179
8181
8090
8243
8056
8250
8089
8173
8181
8049
8264
7963
8344
7932
8348
7967
8273
8069
8155
8185
8050
8288
7957
8340
7961
8318
8021
8234
8135
8144
8214
8060
8265
8056
8241
8126
8160
8243
8050
8356
7952
8414
7926
8411
7962
8325
8063
8211
8175
8111
8260
8030
8286
8039
8243
8110
8156
8213
8054
8300
7989
8314
7997
8259
8086
8152
8188
8026
8293
7923
8363
7897
8357
7949
8292
8049
8192
8169
8102
8241
8064
8259
8091
8179
8184
8074
8283
7976
8363
7938
8381
7955
8315
8049
8212
8172
8103
8291
8016
8346
7991
8335
8043
8248
8142
8150
8231
8065
8282
8045
8249
8097
8160
8194
8050
8303
7945
8380
7899
8397
7925
8317
7995
8209
8123
8112
8214
8036
8260
8031
8219
8101
8142
8207
8053
8316
7992
8341
8002
8313
8073
8209
8183
8083
8294
7984
8374
7950
8386
7974
8318
8050
8206
8153
8097
8215
8051
8228
8070
8178
8154
8069
8266
7983
8362
7916
8380
7914
8321
7986
8223
8119
8107
8226
8007
8287
7979
8290
8026
8224
8131
8162
8263
8093
8337
8077
8323
8110
8234
8210
8127
8329
8015
8407
7931
8405
7919
8356
7996
8255
8111
8137
8205
8066
8259
8045
8224
8096
8136
8195
8030
8288
7953
8340
7951
8322
8003
8215
8109
8092
8215
7961
8289
7924
8337
7948
8300
8033
8220
8159
8121
8237
8067
8265
8072
8207
8159
8123
8266
7997
8362
7917
8400
7925
8400
8020
8310
8118
8175
8226
8093
8323
8047
8330
8061
8242
8130
8122
8207
8014
8270
7994
8282
8039
8229
8137
8102
8232
7972
8343
7930
8407
7905
8360
7975
8274
8102
8173
8194
8075
8234
8043
8215
8090
8151
8199
8026
8259
7919
8324
7909
8353
7982
8263
8066
8119
8172
8006
8296
7989
8368
7997
8323
8055
8229
8151
8115
8215
8038
8233
8023
8198
8127
8158
8278
8081
8409
7997
8479
7980
8453
8033
8385
8131
8248
8228
8135
8277
8039
8273
8026
8226
8149
8128
8207
8004
8258
7920
8229
7916
8162
8017
8084
8147
7964
8270
7909
8355
7890
8313
7895
8206
8024
8161
8165
8086
8220
8028
8209
8083
8164
8203
8064
8290
7964
8396
7952
8389
7972
8329
8071
8227
8187
8078
8243
7938
8247
7927
8263
8031
8239
8181
8131
8239
8046
8291
8077
8279
8111
8172
8234
8106
8376
7992
8430
7945
8481
8078
8486
8124
8252
8147
8113
8254
8082
8284
8051
8188
8067
8099
8227
8040
8331
8002
8414
8075
8354
8011
8092
8055
8004
8276
8018
8470
8058
8441
7998
8292
8070
8239
8202
8172
8328
8103
8224
8018
8145
8204
8137
8334
8032
8440
7999
8506
8111
8614
8321
8586
8454
8412
8508
8258
8455
8081
8340
8096
8309
8328
8433
8590
8345
8506
8153
8340
8092
8217
8230
8148
8292
7913
8325
7860
8327
7802
8190
7808
8005
7867
7883
7954
7817
7980
7704
7811
7670
7649
7734
7574
7866
7569
8098
7837
8294
8036
8222
8048
7934
8014
7771
8154
7865
8389
8161
8626
8452
8549
8479
8400
8479
8300
8482
8295
8379
8253
8096
8176
7923
8329
7897
8372
7864
8293
7909
8177
8001
8050
8095
7914
8059
7793
8033
7855
8066
8049
8104
8313
8141
8434
8106
8439
8181
8339
8261
8210
8304
8020
8375
7939
8397
7911
8345
8015
8261
8028
8039
8072
7994
8151
8004
8230
8170
8215
8352
8225
8504
8197
8636
8192
8545
8097
8302
8058
8094
8124
7937
8206
7865
8194
7835
8152
7954
8108
8032
7956
8104
7944
8183
7989
8169
8116
8131
8228
7971
8271
7859
8382
7969
8535
8169
8456
8155
8187
8076
7946
8180
8030
8300
8082
8204
8090
8036
8193
7989
8285
7946
8319
8046
8416
8314
8378
8448
8230
8428
7930
8260
7764
8160
7794
8062
7884
8017
8082
8019
8199
8006
8126
7935
7922
7965
7834
8094
7759
8146
7730
8214
7848
8240
7984
8162
8189
8163
8401
8130
8417
8094
8336
8065
8227
8196
8129
8299
8185
8531
8319
8499
8339
8363
8351
8106
8300
7849
8254
7758
8235
7837
8251
7979
8168
8106
8081
8289
8214
8485
8368
8547
8492
8466
8546
8294
8585
8273
8638
8302
8605
8287
8366
8332
8213
8414
8090
8463
8028
8398
7947
8166
7904
7950
7918
7869
8032
7906
8140
8059
8199
8177
7989
8189
7878
8307
7874
8366
7837
8173
7795
8017
7988
8018
8132
7950
8219
7920
8115
7887
8014
7989
8011
8242
8059
8350
8128
8467
8277
8336
8272
8161
8423
8124
8458
7888
8286
7781
8189
7902
8060
7883
7860
7992
7955
8156
7983
8155
8088
8166
8419
8275
8591
8227
8601
8095
8358
8038
8286
8259
8331
8549
8330
8628
8278
8656
8304
8505
8240
8292
8212
8103
8255
8073
8292
8129
8257
8225
8154
8361
8072
8435
7959
8424
7927
8399
8007
8264
8126
8239
8303
8136
8322
8068
8270
7986
8085
8080
8086
8285
8042
8340
8039
8333
8038
8224
8125
8079
8254
8059
8418
7940
8356
7855
8217
7865
8168
8064
8105
8143
7987
8115
7934
8092
7990
7955
8039
7864
8191
7850
8310
7888
8313
7961
8258
8088
8134
8180
8003
8242
7894
8212
7917
8229
8044
8155
8115
7995
8067
7811
8025
7861
8041
8010
8043
8205
7993
8386
7990
8427
7850
8222
7753
8129
8027
8229
8248
8154
8354
8146
8324
8135
8317
8251
8120
8223
7919
8170
7877
8301
8128
8459
8293
8310
8344
8165
8527
8131
8421
7864
8223
7889
8175
8042
8154
8232
8111
8297
8149
8368
8287
8327
8411
8204
8454
8004
8375
7910
8397
8008
8396
8184
8343
8336
8169
8307
8042
8332
7987
8170
7966
8092
8109
8060
8321
8132
8391
8139
8320
8212
8267
8330
8090
8342
7930
8382
7895
8348
7892
8226
7978
8197
8220
8096
8099
7882
8121
7978
8072
8052
7990
8083
7787
8090
7736
8144
7803
8203
8128
8287
8275
8130
8384
8087
8450
8010
8319
7908
8154
8028
8124
8147
8073
8313
8139
8284
8119
8128
8136
7958
8195
7830
8261
7822
8371
7999
8504
8298
8461
8348
8288
8398
8137
8360
8084
8355
8214
8335
8279
8086
8247
8023
8307
8011
8277
8104
8158
8154
7961
8157
7708
8095
7670
8188
7809
8215
7929
8093
7987
7950
8080
7921
8059
7944
8147
8152
8130
8291
8043
8391
7989
8428
8077
8488
8236
8494
8497
8458
8639
8423
8788
8352
8569
8195
8380
8127
8157
8162
8066
8211
7993
8176
7990
8079
8094
7961
8143
7764
8140
7679
8200
7750
8210
7930
8222
8146
8159
8204
7985
8148
7848
8046
7969
8084
8051
7910
8029
7807
8198
7928
8222
7971
8104
8090
8042
8241
7945
8357
7897
8344
7934
8369
8153
8430
8409
8397
8400
8242
8539
8524
8729
8712
8689
8809
8513
8769
8311
8669
8193
8524
8118
8280
8058
7952
8000
7775
8033
7708
8053
7807
8093
7966
8016
8023
7916
8139
7968
8206
8041
8214
8191
8120
8308
8052
8425
7943
8404
7913
8334
7875
8096
7916
7989
8020
7921
8116
7928
8143
7976
8055
8113
8064
8278
7964
8245
7830
8131
7816
8060
7997
8007
8105
7878
8214
7826
8221
7821
8245
7994
8272
8194
8215
8267
8098
8239
8010
8107
8030
7978
8067
7856
8198
7774
8217
7812
8322
7963
8233
8033
8179
8308
8272
8662
8509
8766
8395
8524
8290
8308
8336
8222
8415
8150
8403
8187
8375
8307
8331
8486
8194
8392
7823
8215
7727
8157
7720
8056
7893
8054
8127
8064
8221
7996
8234
8153
8270
8256
8144
8364
8068
8398
8005
8401
8074
8292
8117
8183
8255
8128
8432
8049
8385
7967
8317
8026
8289
8210
8176
8152
7970
8098
7861
7971
7875
7879
8016
7839
8135
7817
8352
7939
8477
8116
8514
8326
8476
8414
8272
8453
8242
8492
8225
8372
8143
8164
8193
8034
8227
7960
8214
7893
8077
7947
8046
8206
8163
8525
8123
8504
7949
8369
7936
8244
7985
8104
8090
8138
8351
8202
8375
8262
8360
8343
8195
8333
7958
8228
7782
8154
7729
8068
7833
7963
7941
7852
8064
7792
8190
7830
8167
7919
8187
8102
8146
8222
8097
8252
7982
8096
7947
7996
8104
8016
8386
8081
8545
8070
8575
8161
8566
8291
8459
8361
8332
8402
8098
8289
8072
8353
8285
8387
8466
8265
8347
8006
8337
8023
8317
8138
8207
8104
7912
8162
7887
8383
7967
8359
7893
8218
7955
8168
8145
8095
8254
8143
8372
8198
8167
8022
7921
8136
7851
8193
7820
8315
7896
8262
7942
8108
8013
7939
8058
7859
8240
8028
8466
8304
8567
8480
8470
8442
8179
8294
8009
8267
8173
8330
8358
8266
8475
8109
8468
7968
8455
7989
8410
8066
8284
8152
8167
8231
8109
8354
8164
8329
8155
8132
8103
7887
8042
7715
8089
7830
8168
7821
7881
7722
7662
7860
7651
8080
7781
8297
7952
8297
7973
8077
7899
7838
8005
8026
8389
8312
8352
8211
8129
8397
8264
8668
8247
8651
8151
8535
8161
8402
8211
8218
8294
8135
8378
8079
8361
8095
8324
8199
8205
8275
8084
8264
7964
8191
7971
8172
8187
8169
8333
8043
8400
7949
8409
7916
8351
7964
8218
8028
8061
8073
7945
8091
7913
8114
8046
8146
8209
8093
8367
8064
8475
8104
8452
8048
8175
7915
7863
7970
7771
8087
7750
8145
7804
8192
7954
8173
8135
8151
8272
8151
8383
8229
8395
8347
8300
8382
8120
8458
8026
8478
8008
8483
8066
8325
8119
8253
8322
8256
8429
8057
8224
8005
8254
8178
8131
8097
7840
8027
7735
7991
7774
8058
7980
8036
8183
8006
8429
8128
8653
8152
8526
8136
8431
8229
8313
8310
8165
8273
8070
8248
8166
8221
8221
8045
8268
7941
8290
7831
8300
8029
8404
8206
8247
8186
7960
8156
7882
8292
7969
8317
8106
8356
8314
8255
8248
8046
8238
8054
8256
8181
8214
8308
8132
8468
8094
8533
8020
8455
7970
8280
7966
8113
8098
8075
8227
8017
8202
7945
8117
8058
8078
8140
7915
8150
7878
8176
7805
8006
7839
8042
8176
8032
8366
8060
8467
7942
8314
7877
8128
7888
8004
7989
7936
8066
7940
8172
8114
8287
8404
8314
8577
8297
8643
8161
8594
8161
8514
8212
8349
8270
8175
8295
8006
8270
7929
8250
8010
8161
8022
8014
8142
8018
8274
8049
8274
8136
8247
8305
8168
8437
8040
8413
7929
8375
7892
8257
7933
8161
8094
8087
8184
8028
8185
7961
8143
8091
8108
8183
7980
8229
7900
8244
7895
8258
8064
8246
8210
8099
8251
7936
8296
7939
8360
7922
8207
8009
8199
8170
8049
8098
7884
8055
7932
8032
7988
7823
7961
7713
8146
7790
8343
7984
8500
8190
8395
8161
8114
8281
8160
8412
8111
8464
8313
8472
8387
8335
8409
8210
8477
8279
8584
8421
8560
8504
8372
8551
8227
8572
8049
8454
7927
8303
7926
8151
7986
8000
8054
7945
8107
7929
8060
7956
7977
8047
7859
8133
7862
8307
7902
8258
7929
8132
8020
8021
8166
7964
8326
8012
8404
8007
8294
8045
8189
8163
8130
8275
8121
8363
8199
8297
8250
8222
8397
8118
8457
8009
8450
7929
8348
7960
8258
8062
8134
8201
8071
8253
8018
8258
8039
8191
8100
8088
8235
8030
8279
7986
8311
8083
8246
8145
8137
8268
8008
8322
7882
8325
7874
8284
7913
8169
8001
8097
8093
7963
8097
7935
8144
8109
8182
8210
7957
8195
7871
8307
7868
8263
7914
8204
8030
8126
8185
8054
8328
8063
8435
8093
8383
8131
8248
8147
8064
8184
8003
8227
8052
8265
8219
8239
8424
8206
8459
7973
8407
7849
8211
7740
8088
7913
8064
8063
8059
8299
8129
8391
8231
8407
8366
8358
8490
8312
8602
8255
8549
8226
8459
8304
8355
8392
8190
8437
8008
8376
7929
8382
8051
8353
8145
8200
8168
8015
8112
7926
8070
7953
7997
8084
7935
8163
7791
8164
7719
8219
7877
8237
7961
8073
8003
7844
8028
7804
8119
7831
8065
7831
7988
7988
8018
8237
8100
8423
8208
8369
8157
8120
8162
8046
8381
8020
8487
8052
8571
8114
8482
8237
8477
8501
8532
8665
8432
8542
8269
8325
8194
8123
8220
8003
8322
7981
8341
7953
8249
8049
8183
8197
8103
8288
7943
8309
7883
8280
7929
8234
8062
8160
8104
7998
8141
7991
8198
8092
8168
8151
7978
8183
7860
8284
7819
8273
7818
8225
7937
8154
8096
8094
8185
7884
8078
7803
8065
7899
8055
8053
7999
8094
7830
8077
7831
8065
7901
8078
8136
8071
8303
8004
8468
8045
8522
8034
8421
8173
8460
8381
8400
8503
8362
8516
8326
8438
8369
8346
8457
8238
8514
8111
8492
8068
8416
8103
8266
8161
8105
8242
7988
8285
7903
8247
7892
8180
8016
8149
8128
8090
8264
8065
8240
8060
8150
8100
8000
8228
8009
8452
7980
8409
7849
8221
7853
8106
7914
7958
8049
7952
8232
8036
8277
8060
8171
8111
8024
8147
7933
8264
7980
8271
8015
8166
8108
8043
8160
7846
8221
7831
8337
7959
8402
8082
8331
8165
8182
8303
8261
8450
8260
8376
8275
8254
8349
8137
8422
8024
8427
7991
8402
8013
8261
8097
8124
8213
8065
8373
8085
8443
8137
8424
8214
8325
8278
8128
8267
8060
8262
8043
8167
8069
7999
8147
7875
8194
7735
8234
7784
8264
7893
8231
8088
8197
8181
7982
8088
7881
8118
7982
8143
8181
8164
8316
8047
8362
8051
8386
8099
8341
8254
8291
8393
8216
8524
8107
8490
7988
8350
8011
8264
8125
8184
8209
8067
8197
7981
8084
7973
7966
8027
7846
8140
7771
8217
7843
8386
8064
8417
8138
8148
8097
7972
8211
7952
8274
7992
8279
8103
8236
8246
8179
8346
8101
8322
8108
8341
8223
8147
8204
7990
8285
7864
8313
7840
8338
7919
8265
8070
8235
8229
8177
8338
8165
8374
8246
8409
8396
8251
8320
8003
8299
7929
8319
7978
8263
8096
8207
8276
8133
8339
7971
8332
7918
8307
7952
8213
8058
8148
8172
8050
8204
8027
8223
8159
8207
8262
8105
8351
7976
8416
7955
8427
7988
8360
8050
8192
8126
8065
8195
7966
8246
7976
8245
8093
8197
8185
8121
8332
8076
8295
7958
8141
7943
7981
7992
7837
8119
7772
8251
7833
8311
7864
8253
8020
8222
8180
8163
8296
8124
8312
8157
8324
8348
8332
8425
8108
8391
7974
8363
7951
8292
8054
8230
8211
8159
8354
8091
8409
8021
8407
8087
8352
8178
8220
8218
8090
8247
8033
8218
8063
8132
8147
8030
8268
7927
8327
7867
8352
7889
8277
7965
8227
8121
8103
8191
8015
8258
8023
8220
8018
8120
8193
8140
8326
8060
8396
8083
8314
8046
8155
8118
8031
8245
7970
8370
7893
8307
7877
8276
7981
8197
8132
8106
8168
8016
8206
8040
8125
8048
8004
8213
8104
8484
8086
8523
8126
8525
8174
8343
8214
8216
8305
8080
8339
7982
8303
7983
8222
8047
8083
8090
7971
8132
7920
8110
7930
8032
8007
7960
8172
7939
8405
7958
8412
7936
8397
8041
8341
8193
8250
8310
8214
8439
8249
8450
8297
8325
8256
8143
8351
8071
8375
8008
8302
7998
8208
8129
8133
8271
8023
8380
7991
8432
8011
8367
8022
8222
8105
8100
8164
8000
8146
7989
8112
8052
8060
8218
8013
8361
7990
8430
7975
8420
8049
8341
8171
8224
8247
8080
8290
8000
8300
8023
8283
8109
8164
8177
8053
8264
8038
8301
8075
8236
8137
8091
8204
7940
8275
7855
8329
7862
8332
7933
8229
8001
8087
8088
7997
8164
7978
8164
8031
8115
8134
8037
8249
7995
8378
8029
8365
7993
8242
8089
8140
8181
7985
8255
7908
8341
7992
8382
8090
8343
8206
8219
8259
8115
8283
8087
8221
8095
8065
8138
7931
8237
7872
8313
7818
8278
7881
8245
8033
8181
8187
8127
8359
8158
8424
8139
8352
8204
8251
8286
8146
8350
8075
8352
8070
8283
8138
8174
8247
8053
8338
7955
8388
7922
8385
7974
8305
8085
8229
8189
8105
8233
8048
8232
8077
8167
8165
8064
8263
7980
8337
7934
8348
7960
8284
8056
8178
8174
8066
8281
7980
8338
7971
8314
8012
8239
8105
8160
8216
8087
8275
8068
8249
8131
8179
8224
8071
8324
7958
8392
7917
8398
7953
8333
8027
8218
8143
8120
8234
8049
8290
8062
8263
8100
8162
8198
8063
8292
8015
8322
8010
8279
8078
8180
8187
8045
8250
7910
8328
7896
8352
7936
8289
8035
8203
8156
8114
8225
8079
8263
8111
8207
8185
8118
8299
8030
8387
7974
8411
7986
8376
8074
8257
8162
8130
8271
8038
8347
8010
8339
8048
8267
8118
8158
8213
8069
8274
8025
8230
8058
8157
8155
8052
8265
7939
8348
7893
8381
7914
8339
7990
8233
8103
8127
8201
8056
8266
8050
8252
8114
8179
8226
8088
8315
8016
8360
8001
8326
8076
8246
8178
8126
8291
8020
8377
7974
8396
7984
8342
8059
8242
8160
8133
8215
8063
8241
8070
8194
8165
8113
8260
7991
8349
7918
8378
7917
8348
7991
8258
8108
8142
8207
8027
8269
7987
8298
8046
8270
8166
8194
8247
8075
8296
8044
8287
8083
8229
8171
8119
8290
8006
8385
7935
8403
7915
8346
7976
8246
8086
8154
8206
8103
8272
8056
8212
8084
8143
8181
8044
8295
7990
8376
7994
8356
8015
8240
8103
8122
8204
7978
8265
7910
8304
7921
8274
8010
8221
8147
8140
8228
8077
8267
8086
8228
8173
8143
8267
8033
8374
7958
8424
7947
8407
8002
8310
8092
8180
8189
8071
8257
8014
8283
8027
8217
8100
8119
8204
8032
8255
7959
8237
7973
8171
8071
8088
8212
7981
8324
7929
8408
7945
8388
7996
8289
8092
8195
8215
8138
8304
8128
8302
8183
8230
8257
8127
8343
8010
8382
7972
8390
8015
8314
8113
8196
8229
8082
8317
7998
8362
7996
8328
8049
8231
8138
8119
8215
8040
8232
8026
8189
8088
8097
8187
7970
8276
7876
8333
7860
8336
7913
8274
8023
8181
8162
8102
8251
8043
8282
8064
8237
8137
8161
8254
8080
8333
8023
8347
8034
8291
8121
8170
8216
8053
8312
7946
8382
7932
8367
7964
8270
8037
8160
8147
8071
8208
8044
8210
8076
8149
8177
8056
8283
7960
8340
7910
8373
7961
8316
8055
8200
8165
8087
8258
7989
8310
7975
8292
8042
8230
8172
8160
8270
8092
8316
8081
8287
8146
8201
8230
8083
8333
7978
8415
7932
8408
7951
8337
8020
8214
8143
8128
8230
8049
8257
8040
8213
8134
8159
8252
8072
8340
8011
8359
7996
8294
8061
8183
8162
8068
8282
7984
8383
7969
8390
8002
8340
8100
8230
8198
8156
8283
8114
8295
8149
8225
8228
8124
8315
8010
8395
7950
8413
7956
8344
8023
8230
8124
8110
8222
8017
8289
7991
8275
8026
8205
8147
8127
8259
8067
8300
8029
8257
8069
8166
8144
8035
8250
7921
8341
7886
8363
7895
8313
7985
8228
8105
8127
8207
8079
8283
8085
8240
8144
8154
8241
8046
8318
7967
8347
7953
8309
8017
8221
8131
8102
8242
7985
8307
7942
8334
7954
8275
8032
8176
8147
8096
8244
8072
8264
8085
8198
8155
8077
8232
7949
8324
7881
8348
7884
8318
7956
8242
8085
8130
8190
8038
8265
8015
8278
8061
8229
8163
8151
8274
8063
8325
8027
8320
8066
8234
8160
8121
8261
7995
8362
7939
8396
7931
8357
8000
8259
8105
8162
8227
8114
8282
8090
8244
8141
8162
8236
8050
8326
7963
8356
7917
8333
7959
8243
8084
8137
8212
8048
8312
7981
8342
7991
8306
8075
8228
8188
8131
8276
8097
8312
8105
8257
8183
8154
8276
8033
8387
7963
8430
7934
8396
7964
8278
8066
8180
8185
8090
8259
8042
8277
8056
8206
8147
8114
8240
8035
8311
7975
8289
7986
8216
8071
8099
8188
7984
8293
7917
8358
7917
8352
7981
8260
8088
8180
8205
8111
8273
8088
8255
8151
8186
8236
8073
8340
7982
8394
7951
8401
7998
8334
8095
8207
8190
8073
8275
7996
8320
7996
8284
8050
8198
8149
8096
8227
8023
8255
8035
8231
8114
8147
8215
8019
8306
7919
8389
7918
8401
7949
8308
8035
8200
8153
8102
8238
8054
8270
8078
8229
8162
8144
8271
8056
8353
7999
8364
8010
8297
8089
8197
8211
8082
8304
7975
8371
7944
8355
7988
8274
8071
8168
8163
8077
8241
8060
8232
8088
8153
8175
8030
8269
7929
8345
7881
8351
7899
8284
7989
8194
8129
8088
8235
8008
8293
8007
8282
8064
8206
8170
8114
8266
8052
8315
8045
8282
8109
8197
8217
8080
8319
7977
8401
7928
8403
7957
8363
8057
8257
8157
8140
8231
8066
8248
8053
8189
8117
8094
8216
8006
8323
7955
8364
7964
8308
8017
8197
8135
8088
8270
8008
8366
7979
8360
8000
8299
8096
8209
8219
8131
8300
8111
8303
8142
8224
8221
8114
8322
8007
8410
7952
8423
7949
8380
8023
8274
8138
8142
8219
8043
8275
8018
8258
8045
8169
8117
8052
8212
7980
8262
7951
8227
8000
8179
8139
8071
8264
7963
8349
7910
8374
7923
8337
8009
8237
8119
8145
8237
8108
8292
8102
8250
8187
8175
8286
8060
8365
7982
8406
7978
8377
8023
8266
8140
8167
8272
8054
8315
7977
8341
8004
8285
8075
8179
8168
8075
8246
8032
8246
8048
8181
8121
8060
8223
7943
8302
7868
8356
7878
8340
7948
8242
8070
8143
8180
8051
8253
8034
8277
8098
8230
8209
8150
8309
8048
8358
8019
8352
8078
8286
8170
8164
8282
8052
8382
7967
8409
7963
8366
8025
8267
8113
8141
8190
8062
8231
8054
8201
8111
8117
8211
8006
8314
7931
8368
7902
8347
7949
8266
8076
8159
8197
8063
8284
7994
8316
8009
8289
8107
8221
8221
8124
8309
8078
8333
8105
8274
8171
8168
8283
8054
8389
7962
8436
7941
8411
7990
8318
8087
8202
8190
8107
8253
8061
8268
8086
8201
8176
8104
8254
7984
8306
7936
8307
7959
8225
8051
8116
8161
7997
8274
7927
8344
7930
8337
8011
8277
8134
8195
8238
8124
8300
8114
8272
8157
8176
8233
8057
8347
7965
8408
7937
8406
7963
8301
8039
8200
8174
8093
8275
8023
8309
8025
8273
8074
8177
8176
8064
8252
8004
8252
7984
8200
8040
8094
8144
7969
8265
7895
8344
7871
8349
7919
8279
8012
8184
8136
8096
8226
8059
8258
8074
8190
8165
8097
8266
8003
8344
7955
8368
7980
8312
8071
8216
8199
8100
8297
8009
8369
7988
8354
8015
8262
8093
8162
8184
8072
8267
8059
8239
8090
8151
8178
8023
8266
7915
8337
7868
8351
7886
8290
7975
8195
8108
8098
8217
8024
8283
8043
8287
8118
8211
8222
8114
8317
8051
8360
8044
8314
8109
8217
8214
8107
8327
8004
8407
7946
8406
7964
8344
8054
8234
8155
8145
8233
8071
8261
8082
8188
8140
8090
8239
7982
8326
7904
8339
7900
8294
7980
8197
8110
8097
8225
7996
8304
7967
8324
8012
8273
8113
8189
8236
8117
8317
8085
8311
8131
8239
8219
8119
8321
8012
8421
7953
8445
7948
8393
8025
8279
8138
8178
8235
8077
8267
8044
8265
8098
8183
8197
8076
8280
7987
8311
7957
8270
7993
8173
8102
8068
8225
7964
8324
7918
8363
7948
8335
8034
8236
8135
8142
8231
8088
8285
8109
8247
8191
8160
8289
8051
8386
7973
8426
7957
8388
8011
8275
8098
8144
8214
8053
8299
8009
8332
8032
8264
8096
8162
8195
8069
8272
8012
8251
8025
8177
8109
8069
8218
7953
8332
7892
8383
7892
8353
7960
8259
8075
8164
8192
8076
8259
8071
8278
8117
8212
8223
8116
8334
8039
8396
8013
8382
8060
8306
8155
8182
8267
8060
8338
7964
8369
7961
8332
8029
8247
8134
8159
8228
8082
8256
8064
8210
8123
8120
8222
8003
8323
7912
8369
7895
8359
7948
8281
8070
8176
8187
8077
8266
8015
8306
8044
8283
8132
8194
8235
8096
8315
8037
8319
8040
8256
8132
8162
8264
8061
8372
7954
8402
7915
8384
7967
8301
8066
8192
8174
8098
8245
8057
8244
8084
8174
8179
8060
8258
7953
8318
7912
8316
7928
8243
8035
8148
8164
8045
8274
7955
8323
7947
8312
8011
8233
8112
8161
8230
8087
8287
8074
8254
8145
8176
8242
8074
8362
7984
8434
7944
8426
7970
8341
8057
8221
8161
8113
8248
8041
8277
8027
8230
8091
8148
8201
8066
8293
7994
8300
7976
8242
8056
8142
8172
8025
8278
7943
8368
7914
8371
7954
8294
8047
8212
8174
8130
8255
8086
8282
8120
8225
8199
8116
8302
8013
8388
7967
8409
7978
8347
8063
8239
8173
8114
8266
8012
8333
7987
8326
8031
8247
8103
8129
8207
8047
8262
8021
8231
8052
8141
8156
8028
8258
7932
8357
7884
8382
7923
8345
8004
8239
8129
8144
8239
8080
8307
8083
8284
8155
8198
8240
8098
8339
8014
8360
7996
8318
8067
8229
8177
8117
8296
8004
8383
7958
8397
7981
8333
8055
8226
8149
8104
8202
8042
8226
8064
8181
8143
8074
8243
7968
8340
7903
8365
7906
8321
7967
8225
8104
8118
8211
8023
8288
8007
8317
8052
8270
8150
8174
8253
8101
8322
8066
8328
8108
8241
8198
8121
8300
8010
8407
7951
8426
7938
8373
8009
8283
8124
8163
8208
8071
8245
8051
8227
8094
8145
8192
8033
8270
7941
8312
7922
8284
7972
8200
8084
8089
8214
7990
8309
7947
8358
7966
8325
8045
8231
8165
8149
8267
8102
8292
8099
8232
8174
8139
8277
8019
8370
7936
8398
7913
8367
7972
8268
8077
8161
8211
8071
8281
8032
8315
8066
8263
8146
8159
8245
8058
8308
8009
8274
8014
8204
8101
8090
8222
7979
8324
7909
8380
7903
8358
7972
8259
8086
8175
8195
8099
8270
8071
8260
8123
8184
8231
8080
8330
8003
8392
7970
8376
8012
8299
8122
8184
8230
8069
8312
7989
8362
7986
8322
8044
8222
8145
8126
8223
8046
8258
8044
8203
8104
8099
8199
7976
8299
7901
8373
7882
8367
7939
8293
8052
8182
8163
8083
8263
8043
8304
8078
8270
8179
8180
8260
8062
8328
8007
8340
8033
8274
8125
8168
8237
8048
8342
7963
8401
7950
8393
7991
8298
8092
8183
8177
8084
8227
8049
8231
8103
8158
8171
8027
8269
7938
8337
7892
8343
7932
8277
8037
8178
8164
8062
8265
7975
8324
7988
8324
8076
8249
8171
8160
8278
8091
8314
8078
8266
8136
8182
8242
8065
8351
7972
8424
7932
8414
7962
8348
8056
8229
8168
8125
8253
8052
8267
8054
8219
8116
8120
8213
8020
8296
7957
8309
7959
8246
8038
8144
8159
8049
8282
7952
8351
7919
8354
7973
8301
8081
8212
8196
8123
8273
8092
8271
8127
8203
8213
8114
8336
8008
8416
7958
8422
7965
8343
8043
8241
8160
8115
8253
8012
8305
7994
8284
8036
8202
8124
8092
8212
8013
8255
7991
8227
8043
8145
8157
8040
8273
7946
8379
7903
8388
7921
8330
8003
8234
8137
8147
8238
8084
8288
8088
8264
8175
8171
8244
8043
8337
7982
8378
7996
8338
8061
8235
8171
8108
8276
8003
8354
7960
8365
7988
8306
8063
8192
8163
8091
8240
8056
8236
8069
8164
8144
8053
8246
7950
8344
7889
8377
7908
8337
7998
8248
8114
8137
8231
8051
8304
8034
8304
8075
8239
8174
8129
8277
8060
8327
8037
8309
8087
8229
8189
8107
8295
7997
8383
7929
8403
7936
8351
8007
8249
8114
8141
8203
8064
8255
8059
8214
8114
8122
8209
8003
8297
7929
8333
7912
8310
7972
8219
8094
8115
8217
7999
8307
7951
8341
7990
8310
8082
8223
8199
8131
8282
8090
8304
8112
8241
8191
8146
8297
8018
8397
7948
8428
7935
8393
7994
8290
8106
8177
8213
8085
8272
8038
8279
8067
8205
8152
8100
8242
8008
8294
7968
8282
8007
8212
8104
8095
8226
7979
8318
7910
8367
7917
8336
7982
8252
8105
8180
8225
8103
8279
8091
8249
8142
8171
8241
8054
8342
7980
8405
7955
8396
8001
8300
8109
8182
8224
8074
8308
8010
8346
8000
8295
8070
8202
8169
8098
8253
8031
8254
8025
8194
8097
8095
8210
7982
8320
7913
8388
7892
8371
7950
8290
8061
8197
8189
8121
8280
8079
8303
8097
8243
8174
8132
8282
8037
8345
7999
8362
8028
8289
8123
8184
8245
8066
8338
7976
8390
7959
8369
8008
8280
8087
8168
8185
8073
8249
8058
8216
8084
8124
8177
8011
8275
7915
8344
7881
8363
7931
8298
8042
8194
8166
8078
8265
8008
8321
8024
8306
8095
8228
8206
8132
8295
8062
8324
8056
8275
8128
8181
8243
8070
8336
7953
8410
7917
8404
7961
8338
8051
8230
8166
8124
8245
8063
8271
8086
8216
8158
8101
8232
8002
8314
7933
8307
7925
8245
8003
8144
8133
8040
8249
7956
8338
7941
8345
7993
8288
8102
8194
8211
8110
8283
8088
8266
8130
8190
8216
8092
8320
7988
8407
7932
8423
7965
8365
8065
8249
8170
8136
8264
8047
8301
8013
8271
8058
8173
8159
8072
8247
7998
8277
7984
8245
8051
8150
8157
8034
8277
7944
8371
7905
8380
7932
8329
8028
8226
8156
8147
8242
8093
8289
8109
8241
8184
8152
8276
8032
8358
7971
8385
7963
8327
8040
8232
8156
8113
8268
8011
8333
7970
8344
8007
8280
8081
8173
8184
8079
8260
8048
8246
8071
8172
8152
8044
8245
7938
8344
7881
8382
7899
8339
7971
8236
8092
8132
8213
8062
8295
8054
8292
8107
8218
8208
8116
8300
8037
8354
8020
8321
8079
8240
8177
8122
8292
8000
8382
7943
8401
7956
8348
8025
8240
8126
8140
8211
8067
8249
8067
8202
8129
8110
8227
7984
8314
7913
8350
7896
8315
7968
8243
8102
8126
8212
8026
8303
7987
8337
8027
8302
8113
8210
8230
8120
8301
8070
8301
8096
8243
8188
8151
8299
8026
8394
7939
8425
7928
8393
7990
8283
8089
8165
8190
8071
8259
8044
8258
8084
8186
8167
8069
8248
7970
8296
7935
8286
7977
8214
8087
8109
8215
7997
8326
7945
8378
7950
8345
8023
8266
8140
8177
8238
8103
8297
8111
8257
8176
8184
8280
8064
8386
7987
8430
7951
8404
8000
8318
8093
8173
8188
8056
8261
7990
8294
8009
8261
8074
8161
8180
8056
8251
7994
8254
8003
8196
8078
8079
8183
7962
8300
7895
8364
7878
8353
7927
8271
8068
8199
8197
8140
8308
8114
8319
8139
8235
8222
8137
8322
8037
8385
7986
8375
7999
8294
8099
8177
8212
8063
8308
7982
8376
7980
8356
8032
8258
8107
8146
8187
8048
8234
8032
8208
8094
8130
8193
8021
8303
7927
8363
7877
8356
7918
8301
8034
8192
8153
8098
8261
8042
8314
8055
8291
8116
8198
8225
8108
8312
8039
8339
8044
8288
8122
8192
8226
8068
8337
7967
8404
7933
8394
7951
8303
8037
8199
8150
8112
8232
8058
8246
8078
8175
8146
8056
8237
7964
8321
7903
8335
7925
8288
8029
8194
8157
8088
8275
7999
8345
7980
8349
8043
8283
8139
8187
8232
8099
8295
8080
8277
8130
8205
8226
8099
8327
7987
8415
7927
8420
7937
8357
8023
8249
8136
8135
8224
8048
8275
8025
8253
8094
8171
8187
8050
8266
7965
8296
7960
8254
8023
8169
8142
8069
8270
7965
8365
7927
8382
7955
8326
8048
8243
8163
8147
8251
8097
8286
8108
8224
8182
8124
8279
8016
8371
7959
8411
7961
8368
8022
8259
8138
8133
8252
8036
8326
7993
8319
8018
8246
8102
8148
8181
8041
8250
8002
8230
8028
8160
8121
8045
8244
7941
8352
7893
8394
7904
8352
7975
8250
8108
8168
8233
8109
8303
8083
8287
8149
8227
8246
8108
8341
8037
8392
8024
8378
8072
8269
8164
8140
8274
8020
8357
7957
8376
7964
8325
8028
8226
8137
8131
8211
8058
8242
8042
8167
8102
8069
8208
7957
8310
7891
8359
7893
8342
7956
8263
8084
8157
8212
8066
8292
8026
8330
8062
8280
8133
8189
8238
8092
8311
8044
8323
8064
8245
8158
8142
8269
8015
8374
7936
8416
7929
8385
7984
8290
8096
8176
8184
8083
8246
8054
8242
8087
8157
8175
8042
8259
7951
8317
7910
8302
7957
8242
8072
8130
8188
8008
8283
7949
8348
7965
8339
8055
8269
8171
8179
8266
8106
8299
8095
8257
8166
8174
8267
8048
8376
7969
8431
7930
8403
7972
8311
8067
8193
8175
8089
8260
8017
8289
8034
8227
8097
8139
8209
8037
8276
7980
8278
7988
8226
8084
8127
8206
8012
8319
7933
8384
7912
8372
7978
8304
8089
8202
8197
8130
8272
8093
8279
8127
8213
8219
8116
8331
8018
8405
7971
8385
7965
8297
8061
8194
8185
8087
8291
7998
8342
7982
8314
8024
8219
8100
8111
8190
8028
8224
8008
8202
8078
8121
8165
7996
8276
7908
8367
7888
8386
7937
8324
8035
8233
8171
8152
8283
8095
8328
8091
8290
8161
8186
8247
8086
8337
8023
8363
8024
8304
8095
8201
8205
8090
8320
7993
8395
7949
8380
7974
8315
8053
8204
8159
8100
8227
8058
8226
8065
8156
8148
8043
8246
7944
8341
7897
8357
7916
8315
8005
8211
8124
8094
8235
8010
8320
8002
8320
8056
8255
8158
8170
8263
8089
8317
8071
8299
8115
8214
8211
8099
8321
7984
8405
7928
8414
7937
8357
8007
8243
8113
8127
8208
8048
8256
8046
8222
8096
8137
8197
8023
8283
7950
8310
7944
8282
8006
8208
8133
8095
8255
7990
8345
7948
8371
7982
8325
8063
8229
8174
8144
8266
8090
8283
8104
8218
8183
8133
8297
8026
8396
7954
8426
7939
8378
8002
8278
8127
8158
8225
8054
8297
8031
8305
8045
8229
8123
8116
8208
8022
8270
7980
8249
8011
8178
8118
8080
8247
7975
8357
7917
8402
7928
8365
7996
8275
8124
8181
8226
8097
8278
8085
8265
8144
8184
8234
8071
8332
7981
8362
7948
8344
7998
8260
8113
8147
8230
8041
8322
7972
8358
7971
8298
8040
8207
8139
8103
8216
8044
8240
8040
8181
8112
8089
8214
7975
8327
7910
8392
7898
8371
7962
8292
8077
8182
8199
8102
8290
8056
8314
8077
8251
8170
8164
8277
8070
8333
8023
8342
8047
8267
8139
8155
8252
8037
8351
7951
8412
7945
8370
7987
8285
8099
8188
8201
8096
8255
8068
8224
8082
8132
8164
8020
8267
7932
8338
7901
8352
7952
8277
8065
8172
8182
8059
8275
7985
8339
7985
8311
8058
8229
8173
8152
8272
8077
8296
8062
8251
8134
8168
8243
8054
8360
7959
8423
7926
8422
7971
8337
8068
8237
8182
8127
8254
8036
8258
8037
8211
8116
8099
8195
8002
8292
7954
8306
7961
8250
8066
8168
8186
8062
8306
7955
8351
7917
8365
7987
8307
8085
8205
8200
8128
8276
8084
8247
8097
8181
8205
8094
8325
7998
8406
7951
8416
7985
8363
8082
8254
8185
8116
8268
8013
8308
7996
8298
8054
8209
8137
8085
8202
7997
8237
7991
8223
8047
8148
8163
8037
8284
7941
8374
7893
8393
7927
8336
8024
8243
8154
8153
8254
8089
8300
8104
8270
8171
8170
8259
8059
8346
7999
8380
8005
8339
8077
8232
8180
8103
8286
7994
8357
7952
8354
7983
8302
8064
8191
8161
8088
8217
8028
8212
8042
8148
8146
8036
8246
7941
8342
7892
8380
7908
8330
7987
8237
8119
8135
8236
8050
8319
8046
8326
8094
8254
8197
8162
8289
8065
8334
8047
8311
8098
8229
8194
8117
8298
7991
8389
7926
8403
7945
8359
8012
8247
8120
8147
8207
8057
8243
8053
8204
8097
8094
8197
7991
8284
7916
8335
7917
8315
7992
8236
8118
8123
8228
8009
8312
7960
8358
8009
8333
8095
8241
8209
8154
8294
8096
8297
8119
8246
8197
8145
8304
8023
8389
7930
8415
7925
8390
7984
8282
8084
8157
8190
8056
8256
8021
8263
8059
8200
8138
8080
8212
7984
8270
7942
8252
7979
8184
8089
8087
8214
7976
8317
7917
8381
7938
8368
8025
8299
8145
8204
8241
8127
8298
8106
8275
8162
8180
8252
8062
8356
7984
8411
7960
8393
7989
8299
8108
8182
8220
8060
8297
7994
8325
7981
8271
8047
8179
8151
8076
8206
7995
8215
7992
8172
8071
8081
8189
7969
8310
7905
8377
7889
8378
7945
8295
8075
8212
8220
8155
8332
8120
8342
8133
8272
8203
8161
8299
8053
8360
8006
8364
8027
8289
8106
8175
8222
8058
8328
7968
8393
7960
8370
8003
8274
8084
8160
8179
8058
8211
8023
8190
8059
8106
8147
7977
8248
7896
8335
7882
8355
7923
8289
8041
8196
8168
8101
8287
8045
8352
8053
8337
8118
8245
8225
8144
8305
8069
8324
8066
8288
8137
8193
8242
8073
8335
7959
8413
7925
8401
7958
8336
8036
8208
8140
8101
8219
8051
8254
8059
8187
8113
8067
8202
7964
8273
7908
8301
7911
8252
8006
8165
8146
8064
8272
7985
8372
7976
8388
8040
8337
8144
8229
8237
8134
8296
8090
8292
8141
8216
8231
8113
8344
8008
8421
7946
8430
7952
8362
8028
8245
8149
8132
8242
8041
8290
8014
8266
8056
8174
8141
8057
8221
7977
8259
7954
8226
8012
8143
8139
8045
8269
7953
8365
7907
8389
7944
8353
8049
8270
8183
8189
8279
8128
8323
8131
8266
8197
8171
8291
8063
8370
7977
8402
7974
8352
8028
8235
8124
8112
8233
8005
8317
7962
8334
7993
8280
8061
8162
8163
8064
8236
8007
8220
8034
8154
8117
8037
8234
7955
8350
7898
8392
7906
8355
7973
8264
8117
8178
8244
8115
8323
8084
8314
8125
8237
8219
8122
8304
8040
8350
8015
8339
8070
8254
8166
8136
8270
8006
8363
7946
8391
7944
8346
8007
8242
8109
8141
8194
8063
8235
8043
8180
8087
8073
8185
7963
8276
7892
8353
7903
8339
7964
8266
8090
8155
8223
8063
8319
8024
8366
8057
8328
8128
8230
8227
8125
8304
8076
8311
8084
8253
8171
8146
8277
8030
8378
7945
8417
7932
8391
7972
8289
8074
8178
8180
8094
8243
8026
8241
8052
8160
8132
8044
8214
7947
8273
7914
8283
7966
8232
8074
8127
8203
8022
8292
7928
8346
7948
8356
8016
8292
8166
8216
8266
8146
8325
8123
8300
8174
8190
8260
8072
8371
7976
8415
7932
8400
7968
8317
8073
8204
8183
8088
8274
8015
8305
8003
8245
8050
8149
8149
8032
8216
7968
8242
7970
8195
8053
8115
8194
8006
8304
7918
8382
7902
8381
7959
8334
8088
8249
8214
8160
8299
8120
8315
8136
8244
8205
8134
8296
8022
8372
7981
8387
7991
8311
8071
8207
8191
8084
8290
7988
8357
7965
8341
8003
8257
8092
8158
8190
8058
8237
8023
8206
8061
8119
8136
7998
8258
7921
8359
7892
8389
7921
8325
8017
8238
8158
8147
8274
8074
8335
8083
8324
8143
8224
8225
8107
8312
8042
8347
8030
8308
8097
8213
8196
8088
8309
7975
8383
7927
8396
7943
8324
8023
8218
8127
8116
8210
8054
8238
8048
8161
8112
8059
8209
7952
8306
7906
8354
7925
8311
8007
8229
8134
8116
8259
8021
8349
8007
8356
8040
8304
8147
8210
8237
8109
8303
8070
8288
8117
8219
8204
8116
8308
8001
8400
7935
8435
7946
8379
8005
8265
8116
8146
8205
8046
8246
8017
8242
8060
8145
8145
8021
8223
7947
8283
7943
8274
8003
8198
8118
8088
8250
7985
8356
7945
8389
7967
8362
8047
8267
8164
8175
8254
8098
8293
8102
8241
8184
8150
8279
8045
8376
7959
8405
7944
8384
7999
8276
8106
8156
8221
8038
8285
7986
8301
8000
8241
8083
8151
8173
8046
8254
8000
8246
8015
8187
8111
8082
8234
7976
8338
7899
8377
7885
8353
7964
8280
8096
8185
8206
8111
8285
8075
8283
8121
8206
8217
8101
8319
8030
8377
7980
8355
8016
8269
8116
8157
8235
8042
8316
7955
8362
7944
8325
8013
8236
8119
8137
8193
8046
8235
8036
8191
8106
8096
8200
7986
8315
7918
8380
7903
8380
7963
8299
8081
8200
8202
8110
8300
8052
8335
8060
8284
8125
8189
8224
8095
8317
8043
8331
8047
8263
8132
8162
8247
8044
8350
7947
8412
7927
8392
7974
8296
8058
8195
8171
8095
8246
8056
8239
8076
8157
8156
8050
8243
7959
8325
7922
8346
7959
8282
8061
8179
8179
8065
8292
7990
8369
7988
8356
8052
8291
8160
8185
8243
8095
8286
8070
8251
8130
8178
8224
8065
8344
7953
8400
7910
8402
7953
8336
8049
8224
8154
8111
8238
8028
8280
8029
8229
8081
8124
8171
8028
8258
7967
8288
7970
8251
8071
8175
8189
8054
8302
7951
8382
7933
8402
7982
8344
8083
8241
8190
8154
8264
8089
8275
8095
8204
8198
8124
8301
8014
8386
7962
8406
7975
8343
8054
8229
8153
8107
8255
8006
8322
7974
8312
8017
8236
8108
8142
8199
8046
8249
8014
8228
8051
8158
8163
8053
8279
7953
8375
7896
8397
7920
8357
8013
8256
8141
8157
8243
8084
8297
8071
8270
8115
8168
8200
8056
8303
7988
8341
7985
8316
8069
8233
8177
8121
8296
8004
8376
7953
8382
7971
8331
8044
8214
8155
8129
8228
8068
8252
8074
8196
8152
8095
8258
7992
8358
7927
8390
7916
8354
7994
8260
8121
8142
8241
8052
8308
8014
8325
8053
8268
8132
8160
8220
8067
8299
8035
8282
8065
8223
8163
8103
8269
7990
8378
7921
8406
7920
8367
7988
8266
8100
8150
8193
8065
8241
8041
8220
8082
8145
8169
8034
8267
7959
8325
7944
8322
7995
8246
8110
8124
8231
8021
8333
7966
8372
7982
8342
8058
8250
8173
8157
8250
8083
8281
8086
8232
8168
8151
8269
8024
8365
7942
8417
7933
8399
7999
8311
8099
8193
8206
8088
8275
8020
8291
8038
8227
8112
8124
8207
8034
8285
7992
8285
8018
8228
8122
8128
8228
8007
8337
7931
8398
7923
8382
7983
8286
8101
8197
8213
8112
8265
8076
8253
8101
8169
8198
8066
8302
7974
8358
7934
8359
7967
8276
8066
8162
8177
8045
8284
7977
8351
7974
8296
8021
8218
8112
8107
8206
8034
8250
8037
8211
8117
8151
8242
8062
8363
7957
8419
7934
8410
7961
8332
8074
8225
8185
8120
8266
8057
8298
8063
8242
8132
8153
8237
8064
8338
8023
8365
8040
8301
8114
8185
8218
8059
8318
7957
8384
7932
8386
7995
8334
8102
8222
8197
8115
8244
8054
8217
8052
8129
8129
8017
8236
7925
8335
7902
8366
7919
8275
7988
8154
8106
8051
8221
7970
8302
7976
8298
8019
8213
8121
8120
8222
8039
8276
8027
8242
8100
8182
8216
8081
8317
7940
8381
7898
8406
7944
8352
8021
8223
8119
8106
8218
8051
8278
8073
8269
8161
8160
8228
8047
8313
7968
8326
7950
8261
8000
8145
8104
8012
8204
7900
8268
7847
8281
7888
8233
7998
8133
8086
8031
8155
7986
8175
8044
8199
8223
8155
8358
8063
8468
8031
8508
8054
8458
8110
8340
8241
8263
8400
8179
8427
8112
8404
8148
8331
8241
8229
8337
8141
8389
8077
8301
8066
8160
8127
8047
8270
7983
8410
7978
8489
7986
8375
7983
8171
7978
7955
7991
7832
7998
7811
7959
7872
7892
7983
7842
8126
7817
8237
7925
8397
8145
8311
8103
7992
8081
7832
8209
7902
8377
8102
8529
8325
8454
8379
8284
8357
8128
8354
8225
8381
8338
8304
8562
8397
8784
8329
8756
8216
8623
8228
8508
8303
8311
8278
8071
8271
8016
8295
8090
8268
8150
8123
8249
8048
8345
8108
8430
8159
8319
8213
8182
8359
8144
8480
8044
8517
8015
8441
8009
8173
7960
7972
8009
7923
8107
7999
8203
8053
8020
7998
7758
8038
7804
8301
7881
8236
7789
7951
7728
7782
7834
7703
7992
7704
8122
7844
8216
8076
8342
8274
8141
8227
8066
8378
8228
8416
8323
8286
8395
8209
8579
8108
8511
7990
8488
8026
8340
8129
8290
8291
8169
8349
8031
8141
7851
7966
7875
7776
7828
7603
7973
7863
8409
8144
8267
7976
7891
7942
7768
8118
7872
8511
8216
8641
8193
8385
8156
8214
8230
8195
8424
8271
8445
8307
8329
8396
8216
8424
8043
8481
8073
8537
8056
8315
8020
8087
8009
7854
8108
7887
8238
7935
8175
7870
7914
7808
7775
7955
7842
8100
7879
8136
8026
8105
8238
8097
8394
8053
8507
7971
8388
7923
8316
8128
8405
8436
8435
8584
8431
8608
8382
8498
8442
8389
8430
8156
8450
8092
8461
8080
8326
8075
8156
8123
8014
8281
7997
8389
7940
8306
7897
8126
7870
7928
7949
7930
8085
7912
8136
8023
8076
8109
8038
8291
7934
8378
7941
8416
7932
8229
7844
8070
8028
8010
8142
7872
8092
7790
8048
7819
7941
7913
7889
8012
7809
8102
7910
8196
8035
8160
8204
8137
8468
8090
8372
7753
8191
7827
8259
7980
8233
8160
8121
8180
8033
8293
8092
8169
8077
8056
8236
8093
8406
8035
8415
8058
8592
8469
8694
8561
8406
8471
8186
8597
8265
8528
8124
8423
8184
8210
8085
7929
8079
7963
8211
8001
8017
7976
7885
8114
7887
8363
7961
8487
8063
8533
8294
8677
8556
8480
8448
8242
8518
8280
8476
8299
8427
8305
8144
8280
8051
8371
8084
8394
8172
8333
8277
8176
8313
8013
8413
8009
8448
7959
8383
8123
8394
8257
8252
8262
8026
8048
7809
7936
7908
7964
8017
7740
8049
7787
8307
7930
8279
7843
8007
7817
7857
8021
7913
8244
7932
8236
7820
8087
7923
8057
8070
8037
8311
8178
8391
8201
8318
8224
8163
8396
8245
8718
8296
8755
8207
8538
8017
8215
7962
8052
8062
7959
8205
7999
8150
7948
8079
8033
7949
8112
7947
8337
8040
8356
8048
8306
8226
8231
8295
8049
8337
7982
8466
8058
8401
7997
8219
8054
8147
8179
8053
8157
7972
8134
8090
8166
8295
8142
8466
8115
8599
8228
8663
8213
8460
8216
8314
8342
8211
8423
8126
8381
8022
8242
8035
8201
8217
8052
8151
7954
8219
7990
8142
8065
8131
8298
8125
8473
8019
8436
7976
8463
8050
8366
8078
8160
8109
8044
8195
8038
8310
8209
8362
8323
8229
8349
8023
8274
7925
8337
7972
8221
8032
8100
8077
7817
8022
7688
8059
7628
7946
7611
7937
7850
7926
7912
7740
7900
7793
8058
8095
8267
8460
8312
8500
8125
8545
8066
8484
8010
8382
8118
8262
8151
8017
8131
7887
8121
7867
8144
8032
8169
8151
8067
8291
8064
8360
8097
8342
8268
8469
8556
8319
8442
7976
8365
7902
8424
8007
8324
7994
8143
8099
8073
8205
8072
8206
8005
8197
8278
8303
8468
8164
8427
7949
8219
7794
8227
8077
8251
8204
8083
8120
7684
7949
7584
8010
7813
8184
8114
8239
8214
8065
8314
8210
8445
8334
8412
8443
8337
8541
8195
8607
8175
8630
8124
8492
8123
8370
8284
8297
8447
8245
8374
8028
8215
8110
8253
8240
8127
8355
8106
8437
8144
8352
8029
8084
7976
7815
7965
7634
8033
7601
8114
7808
8251
7919
8091
8021
8109
8250
8098
8238
8015
8087
8026
8038
8240
8030
8369
7982
8420
7984
8276
7883
8188
8155
8166
8301
8165
8477
8115
8397
8045
8267
8078
8105
8055
7889
8014
7848
8161
8094
8258
8192
8103
8251
7953
8352
7891
8305
7783
8233
7908
8258
8110
8131
8132
8021
8237
8027
8284
8147
8238
8228
8149
8419
8199
8498
8150
8486
8204
8373
8234
8232
8359
8121
8414
7981
8386
7979
8377
8082
8283
8130
8130
8168
8059
8255
8053
8146
8059
8052
8185
7940
8191
7827
8376
7991
8439
8029
8292
8044
8072
8117
8038
8328
8083
8399
8074
8274
8070
8092
8073
7955
8151
8004
8353
8126
8224
8097
8115
8255
7965
8271
7896
8403
7950
8391
8037
8445
8309
8355
8207
8018
8155
7984
8134
7931
8020
8056
7980
8206
7946
8257
7848
8197
7878
8177
8063
8163
8209
8107
8408
8051
8462
8086
8460
8205
8404
8241
8249
8308
8167
8334
8128
8278
8146
8143
8278
8213
8582
8235
8670
8167
8578
8147
8466
8112
8147
8039
7935
8086
7877
8188
7957
8211
8146
8281
8235
7935
7968
7621
7949
7834
8243
8192
8259
8218
7892
8087
7678
8108
7710
8295
8021
8438
8217
8389
8342
8277
8448
8299
8382
8145
8208
8195
8076
8257
8041
8448
8059
8465
8062
8382
8124
8278
8297
8290
8517
8188
8406
7923
8132
7813
8089
7977
7997
8011
7819
7924
7770
8068
7981
7990
8046
7997
8364
8053
8446
7938
8439
8084
8542
8236
8354
8137
8020
8085
7928
8207
8015
8232
8107
8153
8192
8100
8355
8111
8507
8272
8586
8345
8444
8437
8349
8615
8301
8685
8126
8440
7909
8121
7785
7994
7999
8016
8148
8023
8139
7934
7980
7897
7822
8038
7808
8143
7723
8136
7739
8191
7950
8202
8167
8188
8403
8193
8439
8079
8385
8120
8355
8233
8300
8364
8176
8331
8094
8307
8115
8215
8153
7938
8099
7766
8187
7796
8371
7966
8492
8207
8405
8102
7949
7929
7763
7977
7803
8002
7925
8044
8180
8137
8378
8060
8379
8032
8398
8128
8310
8272
8299
8523
8263
8537
8097
8495
8068
8399
8108
8312
8188
8088
8137
8008
8199
8056
8205
8157
8106
8262
8014
8368
7998
8498
7937
8282
7976
8375
8391
8429
8285
7799
7796
7460
7848
7732
7992
7900
7977
8138
8152
8503
8373
8659
8474
8652
8550
8447
8550
8179
8455
7923
8281
7767
8218
7883
8206
8028
8082
8062
7954
8111
7948
8124
8012
8061
8081
8005
8270
7946
8328
7981
8403
8127
8426
8278
8312
8302
7960
8121
7730
8119
7753
8108
7957
8285
8276
8299
8395
8271
8421
8195
8327
8287
8314
8415
8166
8455
8003
8408
7904
8368
7990
8341
8139
8266
8249
8121
8269
8006
8221
7988
8204
8104
8174
8287
8061
8268
7946
8192
7900
8126
8045
8110
8219
8039
8368
8009
8486
8025
8448
8023
8318
8137
8223
8080
7895
7957
7818
8024
7904
7994
8044
7923
8106
7759
8116
7764
8221
7920
8283
8109
8325
8392
8301
8474
8064
8312
7955
8307
8033
8209
8122
8123
8199
8070
8356
8248
8470
8384
8430
8494
8283
8526
8094
8472
7953
8405
7945
8289
7951
8099
8091
8095
8239
8026
8166
7877
8006
7923
7946
8027
7914
8197
7897
8243
7980
8269
8099
8277
8352
8215
8381
7921
8209
7706
8118
7810
8197
7999
8155
8149
8134
8270
8110
8317
8219
8359
8419
8372
8567
8220
8571
8145
8565
8106
8441
8059
8160
8079
8047
8199
7979
8251
7883
8127
7898
8155
8170
8219
8254
7974
8126
7923
8177
8126
8316
8348
8144
8271
7867
8260
7801
8291
7924
8456
8223
8499
8384
8381
8458
8330
8503
8273
8368
8198
8255
8392
8186
8347
7941
8274
7893
8228
8014
8235
8227
8167
8300
7994
8318
7918
8298
7910
8235
7970
8076
8018
7951
8050
7913
8109
7990
8110
8093
8032
8250
7952
8232
7743
8165
7734
8216
7931
8229
8114
8180
8292
8143
8411
8189
8455
8190
8363
8297
8325
8411
8199
8404
8112
8357
8154
8328
8305
8234
8382
8056
8404
7948
8388
7889
8258
7870
8124
7969
8026
8082
7982
8150
7967
8104
7969
7961
8001
7847
8105
7801
8194
7815
8199
7892
8162
8099
8140
8254
8078
8340
7985
8366
8008
8349
8096
8236
8157
8132
8272
8147
8367
8208
8346
8274
8216
8326
8063
8401
7969
8455
8010
8473
8028
8234
7900
7923
7921
7851
8077
7829
8023
7802
7978
7928
7927
8018
7887
8262
8044
8405
8203
8456
8349
8372
8486
8281
8619
8206
8612
8129
8524
8150
8458
8293
8376
8354
8220
8363
8207
8369
8212
8235
8268
8123
8371
8020
8405
7969
8364
7953
8238
8037
8122
8132
7984
8198
7876
8183
7835
8127
7923
8101
8070
8068
8241
8085
8299
8098
8290
8208
8220
8286
8040
8307
7904
8376
7896
8365
7934
8292
8059
8203
8157
8100
8252
8087
8301
8071
8205
8120
8138
8288
8115
8419
8098
8387
8008
8241
8051
8127
8164
8026
8279
7931
8322
7858
8236
7827
8099
7907
8014
8007
7950
8072
7914
8094
7998
8103
8132
8003
8264
7995
8434
7998
8463
8035
8415
8149
8310
8261
8208
8336
8090
8395
8098
8381
8144
8316
8231
8203
8304
8098
8369
8208
8488
8295
8273
8244
8078
8295
7937
8386
7934
8425
7952
8290
7947
8118
8012
8008
8115
7972
8162
8013
8188
8101
8106
8232
8044
8321
7961
8311
7924
8228
7977
8147
8145
8105
8296
8016
8368
7973
8376
8020
8325
8092
8192
8150
8079
8240
8093
8309
8166
8248
8257
8169
8373
8040
8415
7967
8454
8000
8379
8014
8233
8107
8111
8204
8011
8237
7952
8166
7956
8095
8041
8008
8143
7972
8247
7966
8212
8003
8154
8148
8071
8254
7934
8320
7872
8341
7894
8304
7964
8186
8084
8133
8212
8103
8332
8219
8400
8350
8359
8446
8215
8462
8071
8456
8057
8434
8078
8265
8119
8105
8210
7977
8263
7903
8286
7941
8221
8000
8113
8079
8028
8160
7978
8177
8025
8180
8159
8110
8267
7991
8362
7930
8402
7932
8372
7971
8254
8074
8146
8172
8035
8245
8040
8290
8098
8249
8231
8212
8359
8116
8397
8094
8408
8146
8351
8281
8273
8382
8110
8418
7975
8388
7905
8288
7924
8184
8020
8073
8108
8001
8151
7992
8133
8057
8070
8165
7983
8253
7893
8324
7919
8350
7973
8253
8060
8134
8185
8075
8317
8034
8369
8044
8321
8098
8269
8335
8295
8383
8149
8363
8152
8312
8210
8187
8288
8074
8398
7968
8421
7928
8388
7964
8296
8054
8173
8149
8059
8219
8031
8256
8066
8197
8138
8072
8212
7986
8286
7947
8279
7956
8199
8037
8102
8150
7960
8237
7889
8319
7904
8333
8003
8284
8130
8214
8238
8124
8279
8085
8235
8127
8181
8243
8060
8315
7955
8368
7923
8394
8003
8394
8144
8263
8197
8100
8254
7990
8253
7960
8236
8027
8149
8117
8061
8217
8006
8238
7987
8188
8066
8127
8195
8013
8280
7911
8383
7932
8432
8004
8371
8087
8247
8163
8131
8236
8080
8298
8143
8284
8224
8166
8294
8037
8335
7962
8342
7975
8289
8071
8203
8179
8090
8287
7989
8355
7970
8353
8011
8284
8081
8165
8174
8070
8235
8038
8214
8077
8146
8168
8044
8287
7969
8387
7927
8402
7960
8361
8058
8271
8173
8153
8258
8045
8275
8020
8278
8091
8213
8195
8127
8298
8064
8347
8057
8312
8114
8231
8220
8114
8324
8006
8425
7972
8433
7978
8366
8038
8233
8127
8120
8193
8047
8228
8054
8197
8151
8127
8227
7975
8290
7908
8325
7916
8292
8006
8225
8125
8098
8227
8005
8333
7998
8364
8019
8292
8084
8185
8183
8104
8276
8085
8301
8129
8215
8184
8105
8286
7979
8362
7903
8380
7907
8338
7977
8242
8080
8120
8170
8036
8252
8033
8280
8103
8207
8197
8112
8295
8012
8285
7950
8271
8029
8234
8155
8126
8284
8026
8384
7971
8414
7980
8382
8060
8293
8163
8181
8245
8102
8266
8067
8221
8161
8166
8275
8051
8361
7960
8362
7894
8300
7935
8217
8056
8109
8168
7990
8238
7939
8266
7962
8213
8051
8164
8176
8099
8279
8057
8290
8071
8236
8168
8139
8298
8077
8421
7985
8448
7966
8430
8030
8360
8137
8229
8234
8142
8302
8085
8270
8087
8168
8146
8061
8237
7977
8311
7959
8304
7991
8243
8089
8133
8207
8011
8290
7930
8353
7961
8372
8055
8323
8175
8231
8298
8176
8334
8131
8270
8156
8166
8238
8023
8316
7930
8385
7926
8393
7978
8299
8054
8172
8154
8050
8238
7988
8300
8028
8276
8093
8187
8199
8094
8278
8032
8292
8026
8227
8104
8161
8244
8075
8376
7963
8396
7913
8371
7957
8310
8078
8222
8170
8110
8231
8070
8271
8108
8213
8189
8123
8271
7997
8335
7950
8344
7961
8267
8051
8172
8172
8070
8287
7983
8345
7960
8331
7998
8224
8049
8095
8125
8020
8182
8015
8191
8079
8143
8187
8030
8275
7911
8341
7868
8347
7908
8304
8009
8207
8130
8096
8231
8030
8275
8017
8257
8081
8172
8186
8080
8302
8049
8353
8048
8284
8078
8172
8175
8055
8292
7949
8369
7909
8364
7936
8313
8022
8196
8120
8095
8193
8038
8221
8044
8155
8102
8049
8201
7942
8286
7890
8324
7905
8283
7985
8187
8120
8101
8257
8018
8337
8003
8350
8039
8282
8130
8201
8236
8119
8298
8070
8273
8122
8211
8213
8110
8317
7999
8411
7939
8445
7999
8437
8098
8340
8212
8240
8306
8150
8327
8071
8254
8079
8150
8177
8062
8286
8012
8331
7988
8300
8062
8231
8166
8116
8293
8019
8396
7981
8406
7978
8344
8041
8243
8141
8147
8227
8087
8265
8084
8214
8171
8126
8239
7981
8307
7890
8324
7869
8291
7939
8219
8077
8119
8189
7998
8257
7966
8288
8007
8248
8122
8222
8280
8161
8356
8113
8354
8139
8288
8241
8198
8367
8108
8463
8004
8466
7955
8398
7998
8284
8097
8169
8211
8109
8287
8072
8278
8136
8233
8258
8146
8344
8038
8384
8000
8364
8038
8280
8150
8169
8258
8060
8360
7988
8405
8001
8376
8062
8266
8143
8145
8201
8044
8214
8033
8184
8101
8099
8207
7987
8309
7908
8372
7908
8367
7966
8289
8074
8171
8179
8064
8249
8004
8281
8015
8233
8089
8143
8189
8050
8267
8008
8274
8027
8232
8124
8134
8229
8013
8335
7933
8384
7902
8356
7941
8261
8044
8159
8145
8050
8185
7999
8158
8015
8096
8127
8030
8236
7958
8321
7921
8330
7966
8280
8088
8200
8237
8112
8347
8031
8397
8009
8345
8044
8248
8132
8148
8215
8067
8255
8043
8215
8108
8141
8206
8027
8316
7952
8403
7919
8400
7947
8310
8027
8200
8152
8093
8219
7988
8219
7984
8189
8048
8097
8162
8019
8249
7958
8270
7970
8245
8065
8136
8162
8026
8288
7955
8386
7933
8389
7980
8330
8063
8214
8172
8127
8243
8083
8268
8107
8203
8195
8109
8290
7994
8344
7916
8368
7941
8306
8043
8218
8165
8106
8265
8018
8342
7990
8325
8031
8234
8111
8144
8214
8079
8280
8044
8252
8094
8174
8187
8056
8302
7962
8392
7928
8415
7954
8369
8016
8237
8133
8133
8214
8043
8266
8051
8247
8111
8166
8218
8068
8310
7995
8345
7993
8301
8058
8204
8162
8082
8265
7972
8340
7917
8349
7947
8295
8020
8185
8123
8090
8201
8037
8220
8056
8172
8142
8090
8258
7989
8357
7928
8386
7931
8355
8016
8263
8142
8161
8270
8086
8346
8040
8338
8067
8274
8152
8167
8234
8063
8281
8024
8271
8061
8211
8168
8096
8281
7981
8377
7926
8415
7937
8380
8008
8269
8115
8151
8206
8067
8262
8057
8229
8105
8154
8205
8059
8314
7992
8371
7989
8354
8046
8269
8158
8166
8268
8046
8358
7982
8385
7993
8339
8060
8241
8173
8160
8266
8093
8293
8098
8244
8179
8154
8291
8041
8399
7970
8429
7951
8397
8001
8301
8105
8189
8214
8087
8282
8024
8296
8044
8233
8106
8131
8218
8053
8307
8022
8311
8045
8244
8142
8146
8254
8025
8369
7957
8418
7946
8393
7997
8301
8106
8190
8198
8105
8264
8071
8257
8115
8189
8230
8096
8339
8008
8370
7949
8356
7972
8275
8075
8160
8191
8051
8293
7982
8342
7970
8298
8014
8203
8114
8108
8220
8061
8276
8065
8237
8126
8133
8210
8005
8310
7923
8394
7922
8416
7986
8363
8089
8234
8198
8125
8275
8059
8301
8063
8227
8119
8130
8222
8043
8307
7996
8325
8009
8264
8087
8155
8203
8048
8303
7946
8372
7922
8366
7972
8277
8039
8159
8142
8071
8212
8033
8217
8081
8165
8177
8062
8281
7963
8354
7908
8369
7945
8315
8053
8211
8165
8101
8269
8010
8325
7983
8302
8035
8218
8131
8117
8217
8045
8270
8025
8229
8087
8145
8197
8027
8299
7938
8388
7903
8385
7932
8318
8019
8215
8127
8103
8206
8029
8247
8041
8200
8108
8113
8218
8040
8312
7975
8336
7975
8280
8060
8187
8185
8090
8287
7972
8369
7954
8397
8006
8330
8090
8226
8199
8141
8283
8095
8292
8123
8209
8197
8097
8296
7986
8380
7928
8401
7941
8343
8017
8242
8145
8128
8251
8033
8308
7996
8295
8037
8216
8125
8118
8234
8056
8303
8028
8268
8073
8185
8174
8082
8300
7973
8395
7933
8434
7965
8382
8029
8255
8135
8147
8220
8069
8269
8068
8233
8113
8123
8206
8017
8312
7979
8373
7981
8325
8036
8236
8147
8123
8269
8025
8362
7975
8373
7992
8306
8058
8205
8167
8106
8253
8064
8262
8080
8211
8170
8111
8283
7997
8374
7933
8412
7930
8382
8003
8282
8120
8176
8226
8074
8279
8014
8281
8046
8213
8125
8105
8240
8037
8308
8016
8306
8069
8239
8162
8125
8277
8001
8370
7931
8399
7934
8358
7998
8255
8101
8152
8201
8074
8236
8056
8228
8133
8160
8232
8047
8326
7967
8373
7952
8371
8016
8290
8134
8176
8245
8062
8323
7981
8350
7994
8301
8058
8212
8151
8087
8217
8030
8242
8051
8210
8129
8109
8234
7988
8347
7921
8399
7907
8383
7965
8291
8067
8168
8169
8059
8248
8022
8265
8053
8209
8150
8118
8253
8039
8329
7991
8322
8011
8244
8113
8139
8231
8037
8342
7951
8394
7937
8369
7995
8270
8077
8161
8186
8084
8258
8067
8233
8130
8163
8214
8047
8321
7957
8376
7925
8378
7966
8292
8060
8173
8179
8067
8275
7985
8308
7979
8276
8043
8195
8162
8104
8255
8055
8297
8063
8260
8140
8163
8240
8052
8359
7939
8411
7919
8401
7956
8315
8058
8204
8167
8108
8243
8045
8259
8052
8193
8129
8105
8234
8014
8323
7971
8340
7976
8267
8073
8177
8208
8074
8316
7971
8365
7940
8355
7991
8277
8080
8177
8189
8093
8268
8078
8258
8138
8191
8220
8084
8324
7976
8395
7930
8411
7965
8345
8054
8232
8167
8116
8258
8017
8298
7997
8278
8055
8201
8166
8107
8264
8037
8305
8030
8267
8100
8189
8209
8076
8322
7966
8401
7926
8414
7963
8358
8038
8225
8135
8117
8214
8053
8248
8062
8199
8129
8119
8241
8027
8338
7954
8362
7971
8319
8052
8225
8163
8105
8274
8003
8347
7965
8355
7991
8285
8081
8198
8189
8081
8246
8048
8246
8075
8188
8186
8094
8290
7970
8375
7909
8395
7920
8351
7998
8252
8129
8142
8221
8040
8274
8021
8282
8069
8205
8164
8099
8275
8031
8321
8011
8296
8065
8222
8173
8110
8296
7999
8386
7936
8397
7938
8352
8014
8237
8109
8127
8188
8057
8244
8066
8213
8132
8122
8226
8024
8346
7968
8392
7951
8364
8007
8272
8132
8156
8245
8048
8324
7991
8344
8007
8292
8081
8201
8197
8117
8279
8078
8306
8105
8243
8178
8127
8270
8007
8378
7931
8413
7923
8391
7994
8294
8111
8180
8202
8069
8260
8032
8265
8071
8191
8162
8095
8256
8013
8332
7979
8321
8011
8241
8118
8135
8252
8035
8364
7962
8396
7953
8355
8011
8261
8111
8165
8211
8085
8271
8077
8243
8151
8172
8243
8050
8340
7957
8391
7925
8382
7983
8298
8081
8181
8193
8065
8276
7999
8309
8001
8275
8071
8192
8177
8093
8269
8033
8290
8044
8245
8126
8141
8232
8014
8326
7922
8383
7884
8357
7934
8283
8037
8174
8143
8074
8230
8044
8247
8077
8202
8168
8108
8264
8010
8343
7966
8341
7980
8278
8074
8172
8196
8060
8303
7965
8363
7943
8334
7991
8262
8091
8162
8198
8078
8254
8057
8235
8113
8166
8215
8056
8331
7957
8400
7917
8397
7943
8321
8047
8218
8164
8114
8259
8033
8310
8020
8283
8081
8194
8189
8094
8286
8034
8315
8022
8265
8097
8183
8211
8077
8328
7970
8412
7935
8418
7959
8341
8046
8232
8164
8133
8222
8062
8252
8073
8195
8142
8088
8251
8008
8347
7953
8359
7939
8301
8037
8220
8175
8109
8276
8005
8351
7968
8347
8010
8287
8099
8180
8212
8107
8292
8077
8271
8104
8197
8200
8085
8293
7965
8380
7914
8407
7928
8347
7997
8241
8118
8120
8208
8033
8270
8033
8278
8083
8186
8171
8081
8271
8010
8323
7998
8294
8053
8203
8160
8094
8276
7982
8374
7936
8404
7958
8347
8029
8247
8143
8146
8224
8075
8272
8085
8229
8166
8137
8264
8018
8347
7939
8375
7927
8351
7999
8253
8120
8132
8226
8020
8295
7973
8324
8009
8270
8088
8173
8188
8070
8260
8030
8258
8059
8207
8150
8096
8269
7986
8375
7925
8409
7917
8371
7981
8271
8095
8160
8198
8070
8263
8045
8261
8093
8199
8202
8099
8294
7996
8340
7979
8335
8030
8259
8140
8153
8255
8022
8336
7943
8374
7944
8339
8012
8238
8119
8138
8209
8075
8272
8082
8224
8133
8129
8230
8031
8351
7949
8408
7935
8397
7991
8313
8100
8189
8212
8060
8267
7991
8297
8002
8262
8089
8184
8204
8091
8298
8044
8311
8063
8248
8141
8153
8256
8026
8372
7945
8416
7929
8396
7986
8304
8069
8173
8162
8076
8242
8056
8263
8097
8203
8192
8093
8293
8005
8352
7960
8358
7996
8295
8090
8172
8199
8047
8303
7974
8372
7964
8344
8019
8257
8120
8158
8216
8077
8275
8078
8248
8127
8160
8220
8037
8331
7955
8397
7910
8390
7944
8314
8049
8207
8161
8092
8247
8013
8287
8018
8253
8084
8160
8184
8057
8272
7994
8299
8011
8264
8106
8183
8221
8062
8327
7967
8407
7928
8396
7965
8323
8044
8202
8148
8115
8228
8059
8256
8087
8196
8179
8109
8277
7992
8354
7940
8369
7953
8309
8037
8200
8156
8081
8267
7987
8324
7955
8317
8009
8252
8110
8162
8205
8070
8262
8038
8245
8095
8174
8191
8054
8302
7963
8399
7921
8420
7947
8370
8029
8252
8146
8130
8229
8041
8272
8027
8250
8095
8165
8195
8070
8295
8007
8336
7992
8288
8065
8202
8181
8097
8298
7994
8388
7931
8377
7944
8319
8029
8221
8149
8130
8232
8059
8248
8071
8187
8151
8105
8263
7999
8364
7937
8392
7944
8360
8007
8258
8143
8149
8253
8033
8328
8001
8331
8032
8265
8106
8168
8225
8096
8313
8067
8305
8097
8228
8182
8120
8293
8002
8394
7926
8415
7922
8368
7981
8253
8094
8142
8197
8064
8258
8050
8251
8093
8167
8192
8062
8296
7991
8337
7960
8313
8008
8232
8130
8123
8241
8013
8352
7958
8377
7956
8333
8028
8233
8149
8145
8247
8090
8295
8096
8235
8166
8136
8256
8017
8372
7948
8408
7928
8371
7969
8258
8068
8147
8190
8056
8276
8003
8302
8030
8247
8101
8152
8213
8067
8285
8004
8264
8022
8231
8137
8132
8256
8008
8362
7943
8424
7929
8380
7974
8274
8070
8169
8171
8076
8238
8050
8240
8095
8184
8201
8077
8298
7986
8367
7961
8367
8000
8292
8106
8173
8220
8055
8316
7976
8362
7972
8339
8036
8246
8144
8142
8232
8075
8277
8071
8243
8139
8163
8244
8035
8349
7944
8412
7913
8400
7963
8319
8069
8202
8178
8090
8259
8028
8294
8039
8260
8114
8172
8225
8068
8301
8009
8322
8024
8273
8118
8185
8244
8071
8352
7965
8408
7933
8385
7968
8298
8059
8196
8170
8098
8231
8053
8234
8080
8167
8176
8069
8280
7978
8362
7941
8381
7966
8312
8058
8206
8184
8096
8279
7989
8328
7971
8309
8031
8242
8137
8149
8230
8070
8283
8053
8256
8113
8172
8215
8053
8307
7949
8392
7899
8391
7930
8324
8022
8225
8146
8114
8239
8050
8279
8039
8227
8103
8149
8215
8050
8309
7992
8338
7993
8298
8079
8201
8183
8081
8295
7972
8377
7927
8371
7956
8304
8045
8210
8170
8129
8272
8086
8274
8104
8191
8164
8086
8274
7993
8395
7958
8428
7963
8361
8028
8232
8122
8102
8230
8001
8288
7975
8294
8020
8219
8111
8126
8227
8057
8285
8030
8266
8085
8196
8182
8083
8295
7971
8385
7911
8410
7934
8361
8005
8257
8120
8148
8227
8071
8274
8072
8258
8130
8175
8227
8062
8313
7975
8350
7965
8321
8036
8240
8151
8119
8268
8007
8357
7954
8373
7973
8323
8057
8224
8163
8120
8227
8060
8257
8074
8207
8156
8112
8265
8002
8361
7923
8399
7918
8371
7973
8265
8095
8145
8196
8043
8276
8007
8297
8039
8240
8130
8155
8253
8068
8312
8028
8319
8071
8242
8157
8130
8278
8010
8378
7945
8413
7929
8371
7991
8272
8096
8160
8184
8071
8239
8050
8228
8106
8157
8204
8055
8320
7982
8374
7959
8365
8007
8292
8113
8180
8237
8056
8317
7976
8356
7974
8304
8032
8215
8150
8117
8234
8060
8270
8057
8224
8140
8138
8257
8033
8367
7957
8427
7918
8377
7943
8289
8055
8176
8164
8069
8249
8022
8279
8042
8226
8116
8125
8218
8035
8305
7993
8321
8009
8250
8105
8144
8218
8028
8324
7942
8392
7924
8365
7977
8287
8092
8186
8185
8097
8265
8068
8258
8119
8189
8218
8086
8322
7987
8391
7947
8395
7982
8323
8074
8203
8192
8087
8276
7981
8312
7961
8292
8038
8224
8146
8106
8223
8038
8273
8036
8240
8114
8154
8217
8048
8330
7956
8420
7926
8410
7947
8326
8036
8219
8152
8106
8233
8041
8279
8067
8241
8153
8153
8241
8039
8315
7981
8341
7992
8285
8080
8198
8193
8068
8300
7965
8371
7930
8351
7963
8297
8056
8188
8168
8091
8233
8061
8240
8096
8187
8190
8091
8296
7985
8383
7924
8398
7943
8337
8035
8233
8151
8115
8249
8017
8317
8003
8307
8053
8233
8156
8130
8247
8050
8297
8034
8272
8091
8186
8193
8082
8306
7979
8404
7927
8423
7950
8359
8029
8248
8129
8126
8218
8060
8268
8065
8234
8152
8163
8251
8045
8323
7966
8364
7972
8330
8043
8236
8167
8114
8273
7999
8343
7936
8339
7966
8291
8061
8198
8173
8102
8257
8073
8269
8087
8198
8175
8105
8290
7994
8387
7928
8412
7926
8363
7996
8265
8112
8142
8209
8035
8273
8006
8280
8048
8210
8147
8103
8241
8026
8310
8014
8297
8058
8220
8151
8097
8269
7979
8358
7914
8393
7929
8358
7998
8250
8116
8161
8209
8088
8273
8085
8249
8136
8152
8222
8036
8316
7953
8371
7947
8356
8000
8263
8109
8146
8233
8024
8316
7970
8341
7978
8280
8040
8182
8147
8091
8248
8059
8281
8073
8224
8159
8127
8273
8018
8375
7935
8422
7924
8393
7976
8293
8085
8174
8191
8062
8257
8032
8285
8063
8218
8160
8138
8256
8034
8329
7996
8325
8026
8264
8134
8153
8237
8012
8328
7934
8380
7929
8348
7978
8258
8085
8166
8188
8079
8246
8059
8230
8119
8157
8218
8052
8332
7970
8389
7930
8382
7967
8304
8079
8192
8196
8068
8278
7977
8300
7970
8271
8051
8199
8158
8107
8259
8042
8289
8051
8249
8131
8157
8236
8047
8356
7953
8419
7913
8406
7963
8319
8057
8208
8168
8109
8247
8044
8274
8061
8214
8150
8131
8262
8035
8352
7988
8365
7997
8290
8094
8190
8210
8074
8307
7966
8373
7938
8358
7987
8275
8082
8183
8196
8098
8270
8075
8256
8121
8186
8217
8068
8300
7962
8394
7927
8405
7957
8343
8050
8225
8155
8102
8245
8011
8299
8000
8278
8051
8184
8148
8079
8238
8024
8298
8027
8262
8091
8188
8199
8061
8316
7955
8390
7915
8403
7941
8340
8030
8229
8148
8139
8232
8065
8274
8083
8226
8151
8131
8248
8024
8341
7978
8373
7981
8329
8043
8211
8153
8100
8280
8002
8353
7955
8358
8000
8303
8084
8191
8184
8081
8241
8034
8234
8075
8186
8178
8083
8291
7975
8384
7925
8416
7934
8368
8011
8255
8128
8145
8225
8045
8279
8009
8269
8056
8200
8176
8112
8281
8033
8316
8004
8296
8064
8214
8165
8094
8275
7973
8367
7916
8391
7938
8344
8010
8250
8129
8143
8210
8060
8247
8058
8207
8127
8125
8227
8019
8335
7950
8380
7940
8352
7992
8247
8117
8135
8240
8029
8316
7979
8346
8003
8290
8085
8195
8201
8117
8284
8068
8292
8073
8206
8145
8101
8263
7994
8384
7941
8427
7927
8379
7977
8281
8097
8178
8217
8088
8282
8058
8292
8093
8217
8186
8121
8288
8031
8342
8000
8337
8031
8253
8128
8134
8250
8009
8332
7926
8371
7925
8331
7997
8253
8105
8156
8206
8080
8269
8080
8238
8127
8129
8215
8025
8329
7946
8385
7925
8368
7958
8273
8068
8171
8190
8060
8282
7998
8315
7992
8262
8050
8168
8164
8074
8247
8024
8278
8038
8228
8124
8137
8243
8019
8359
7936
8406
7911
8388
7957
8304
8059
8184
8157
8072
8239
8053
8270
8087
8214
8177
8110
8272
8013
8347
7981
8364
8005
8294
8102
8179
8213
8050
8301
7953
8358
7928
8327
7973
8239
8070
8148
8199
8086
8265
8069
8256
8138
8188
8239
8086
8359
7985
8415
7927
8406
7951
8322
8060
8221
8167
8098
8261
8022
8305
8018
8289
8091
8210
8207
8100
8278
8023
8309
8025
8273
8104
8183
8215
8062
8327
7959
8401
7918
8395
7954
8320
8036
8213
8151
8121
8232
8054
8260
8075
8204
8160
8115
8256
8007
8349
7964
8372
7974
8324
8053
8226
8179
8102
8284
8005
8355
7965
8345
8003
8266
8094
8175
8202
8089
8273
8053
8259
8100
8187
8201
8078
8307
7979
8386
7907
8406
7918
8346
7999
8235
8123
8129
8221
8037
8285
8017
8262
8063
8164
8156
8064
8269
8010
8321
7998
8295
8073
8212
8168
8085
8291
7985
8378
7928
8395
7950
8344
8039
8252
8155
8151
8239
8089
8282
8098
8234
8172
8133
8267
8025
8367
7964
8406
7953
8360
8014
8252
8131
8128
8234
8010
8308
7974
8334
8012
8250
8076
8151
8180
8062
8259
8032
8259
8066
8201
8161
8098
8284
7981
8377
7920
8412
7920
8364
7980
8266
8109
8162
8207
8071
8269
8052
8274
8100
8198
8192
8099
8291
8003
8336
7982
8325
8035
8242
8131
8115
8239
7988
8327
7929
8364
7932
8327
8010
8240
8123
8148
8219
8070
8256
8061
8221
8140
8125
8240
8016
8339
7940
8396
7927
8387
7982
8293
8101
8175
8218
8072
8304
8013
8309
8011
8271
8102
8187
8216
8097
8302
8043
8307
8055
8242
8152
8149
8265
8017
8369
7938
8408
7911
8369
7951
8274
8064
8172
8178
8075
8239
8048
8264
8100
8209
8200
8093
8291
7999
8347
7953
8343
7983
8270
8094
8171
8221
8050
8309
7967
8368
7964
8343
8021
8259
8136
8167
8232
8091
8275
8074
8241
8131
8155
8229
8038
8342
7946
8393
7908
8394
7948
8314
8045
8188
8154
8079
8251
8016
8290
8017
8263
8096
8184
8207
8082
8303
8026
8326
8027
8268
8107
8177
8229
8059
8328
7951
8398
7918
8387
7960
8323
8061
8221
8179
8135
8255
8083
8273
8101
8201
8179
8088
8273
7995
8355
7938
8364
7949
8295
8035
8189
8152
8067
8254
7972
8330
7958
8333
8028
8263
8108
8144
8185
8042
8255
8034
8251
8112
8184
8206
8064
8300
7952
8396
7921
8413
7934
8350
8007
8234
8143
8124
8241
8047
8294
8058
8281
8133
8204
8221
8077
8306
8012
8352
8015
8307
8076
8207
8182
8091
8291
7974
8370
7928
8385
7951
8322
8027
8211
8132
8120
8213
8054
8250
8069
8189
8152
8097
8255
7992
8352
7927
8385
7931
8333
8012
8242
8133
8124
8249
8031
8331
8006
8329
8038
8278
8118
8177
8221
8075
8282
8033
8257
8070
8200
8169
8098
8292
7981
8382
7909
8409
7913
8352
7974
8248
8099
8142
8206
8056
8262
8046
8254
8096
8171
8193
8069
8290
7989
8341
7982
8324
8032
8239
8144
8134
8270
8019
8372
7961
8401
7978
8359
8047
8255
8160
8160
8240
8081
8258
8070
8210
8143
8128
8253
8014
8363
7936
8406
7926
8371
7976
8268
8082
8139
8191
8035
8272
7993
8303
8025
8249
8114
8162
8218
8068
8289
8022
8281
8047
8226
8137
8118
8258
7998
8357
7917
8403
7917
8381
7981
8282
8087
8175
8193
8094
8275
8073
8274
8120
8202
8211
8082
8305
7994
8363
7969
8360
7996
8267
8107
8164
8221
8033
8295
7942
8336
7935
8317
8025
8239
8132
8136
8222
8061
8266
8063
8242
8137
8145
8241
8027
8342
7937
8402
7912
8395
7962
8317
8068
8196
8182
8088
8262
8028
8308
8047
8271
8123
8173
8221
8061
8295
8003
8316
8017
8254
8112
8148
8221
8039
8330
7942
8390
7918
8371
7967
8299
8069
8199
8184
8095
8236
8056
8254
8092
8179
8187
8077
8302
7992
8371
7947
8388
7972
8313
8073
8203
8189
8084
8284
7983
8340
7981
8327
8040
8254
8142
8156
8233
8074
8284
8050
8249
8116
8168
8215
8054
8320
7938
8395
7906
8410
7941
8329
8023
8220
8154
8123
8249
8048
8291
8056
8230
8098
8145
8207
8057
8311
7997
8332
7989
8284
8076
8180
8180
8058
8292
7962
8374
7929
8382
7973
8323
8063
8219
8176
8126
8245
8068
8261
8084
8194
8185
8096
8285
7990
8380
7932
8387
7938
8324
8011
8213
8130
8094
8236
8002
8299
7980
8306
8032
8236
8117
8143
8221
8060
8288
8042
8271
8096
8193
8194
8085
8309
7975
8398
7919
8405
7921
8344
7998
8231
8117
8129
8236
8076
8294
8079
8264
8125
8162
8216
8047
8307
7984
8351
7975
8314
8048
8225
8155
8113
8285
8005
8366
7962
8382
7973
8315
8040
8213
8155
8106
8233
8060
8260
8079
8206
8163
8104
8270
7992
8370
7931
8408
7933
8377
8000
8265
8116
8146
8228
8047
8290
8002
8301
8042
8241
8122
8148
8241
8056
8304
8027
8294
8061
8225
8154
8106
8270
7982
8372
7919
8397
7915
8356
7985
8262
8106
8158
8200
8070
8268
8069
8254
8117
8165
8217
8061
8316
7976
8358
7948
8350
8003
8258
8113
8138
8225
8014
8319
7958
8353
7971
8319
8050
8231
8169
8122
8243
8072
8274
8076
8234
8160
8143
8269
8026
8381
7950
8430
7930
8392
7972
8286
8068
8167
8191
8070
8260
8013
8282
8044
8218
8116
8122
8217
8033
8298
7993
8307
8017
8244
8121
8137
8253
8034
8362
7950
8405
7932
8381
7992
8294
8108
8202
8215
8111
8280
8091
8263
8118
8177
8214
8061
8309
7965
8368
7932
8367
7981
8290
8077
8173
8198
8058
8291
7975
8322
7962
8288
8032
8206
8153
8118
8234
8058
8288
8067
8248
8126
8132
8206
8008
8326
7931
8409
7914
8402
7949
8317
8063
8208
8178
8112
8268
8057
8291
8060
8226
8124
8123
8227
8040
8318
7986
8342
8007
8280
8086
8177
8210
8046
8302
7941
8361
7917
8358
7975
8284
8059
8174
8174
8089
8230
8053
8235
8093
8172
8193
8074
8315
7985
8394
7944
8411
7971
8337
8056
8220
8168
8105
8280
8033
8338
8017
8318
8061
8228
8157
8123
8256
8048
8294
8033
8261
8099
8177
8211
8063
8319
7956
8396
7909
8399
7937
8336
8020
8223
8143
8125
8223
8055
8272
8058
8224
8144
8140
8230
8031
8322
7969
8351
7975
8303
8057
8209
8179
8095
8288
7970
8357
7938
8360
7982
8316
8082
8211
8197
8121
8270
8070
8266
8093
8186
8177
8083
8283
7985
8385
7926
8400
7926
8334
7998
8232
8114
8115
8225
8024
8283
8007
8288
8051
8212
8143
8091
8221
8023
8298
8020
8288
8081
8210
8185
8100
8298
7973
8379
7919
8408
7933
8350
8014
8249
8132
8147
8226
8085
8275
8085
8242
8154
8154
8247
8054
8354
7997
8406
7979
8363
8039
8254
8148
8142
8262
8024
8345
7961
8353
7977
8289
8051
8183
8153
8081
8228
8042
8248
8061
8188
8148
8092
8262
7990
8378
7934
8422
7926
8374
7986
8278
8109
8162
8217
8063
8285
8032
8288
8063
8212
8152
8101
8243
8021
8324
7998
8308
8039
8229
8143
8113
8254
7987
8329
7907
8373
7921
8350
8004
8264
8121
8166
8206
8072
8247
8055
8226
8129
8149
8228
8040
8333
7952
8373
7930
8363
8001
8297
8126
8179
8236
8067
8326
8011
8366
8022
8321
8098
8226
8191
8109
8263
8039
8278
8054
8225
8142
8128
8247
8001
8353
7920
8396
7900
8379
7953
8291
8083
8193
8193
8097
8263
8030
8259
8054
8196
8151
8103
8256
8025
8337
7989
8340
8011
8258
8097
8136
8211
8022
8324
7940
8383
7941
8361
8003
8280
8121
8191
8219
8102
8269
8067
8228
8095
8149
8206
8036
8324
7958
8387
7918
8383
7960
8302
8064
8195
8186
8079
8272
8004
8327
8007
8292
8067
8201
8174
8102
8266
8037
8296
8044
8253
8122
8161
8229
8044
8340
7955
8404
7916
8403
7956
8326
8068
8214
8183
8121
8253
8063
8276
8070
8212
8159
8095
8238
8005
8333
7970
8352
7987
8297
8084
8201
8199
8072
8296
7972
8370
7959
8360
7992
8263
8078
8169
8189
8083
8257
8060
8240
8107
8167
8194
8058
8300
7956
8388
7913
8406
7937
8336
8040
8227
8153
8121
8257
8035
8313
8030
8295
8080
8201
8181
8097
8282
8043
8322
8029
8289
8091
8187
8197
8070
8302
7946
8369
7898
8380
7926
8320
8017
8216
8138
8122
8226
8060
8256
8066
8212
8162
8129
8266
8029
8351
7958
8367
7960
8325
8036
8226
8155
8097
8250
7982
8321
7948
8333
8001
8286
8096
8189
8210
8111
8283
8069
8264
8101
8204
8195
8102
8291
7985
8391
7920
8410
7918
8363
7994
8256
8109
8131
8213
8037
8263
8026
8271
8080
8190
8167
8087
8273
8020
8326
8000
8312
8059
8233
8170
8116
8287
8005
8382
7941
8402
7957
8364
8030
8265
8141
8154
8226
8078
8270
8080
8221
8142
8129
8248
8028
8349
7952
8382
7928
8347
7973
8236
8092
8123
8211
8022
8301
7978
8317
7995
8276
8068
8165
8175
8073
8263
8028
8263
8054
8213
8160
8120
8268
8004
8378
7932
8419
7921
8387
7982
8291
8092
8171
8204
8097
8280
8072
8298
8102
8208
8190
8104
8286
8009
8338
7978
8331
8007
8246
8100
8125
8219
7995
8309
7933
8368
7951
8349
8024
8275
8142
8196
8238
8088
8263
8065
8221
8134
8150
8232
8036
8345
7954
8402
7928
8388
7965
8292
8071
8178
8193
8082
8286
8011
8322
8025
8280
8098
8191
8198
8088
8283
8045
8320
8056
8247
8118
8138
8226
8011
8327
7924
8388
7891
8377
7948
8284
8042
8180
8164
8100
8243
8056
8260
8081
8203
8171
8093
8269
8002
8350
7971
8362
7993
8299
8091
8189
8203
8060
8292
7969
8356
7954
8349
8013
8263
8126
8177
8222
8099
8288
8072
8254
8123
8155
8216
8050
8318
7954
8400
7912
8400
7948
8331
8041
8203
8138
8098
8244
8022
8301
8032
8276
8090
8178
8185
8075
8282
8011
8313
8009
8263
8084
8175
8202
8062
8324
7967
8402
7928
8405
7968
8335
8047
8225
8171
8137
8249
8068
8260
8078
8193
8158
8104
8269
8007
8355
7948
8377
7953
8313
8050
8216
8159
8091
8270
8007
8345
7977
8328
8004
8259
8102
8161
8192
8056
8253
8031
8240
8090
8187
8200
8085
8311
7977
8400
7925
8422
7941
8374
8023
8261
8143
8150
8249
8070
8305
8059
8283
8109
8187
8205
8078
8290
8003
8334
7996
8299
8058
8206
8153
8077
8260
7963
8352
7914
8377
7945
8337
8034
8227
8134
8130
8225
8078
8268
8082
8211
8147
8113
8245
7997
8347
7940
8399
7951
8370
8012
8261
8124
8130
8228
8028
8303
7999
8330
8039
8282
8117
8173
8218
8080
8284
8037
8270
8066
8211
8159
8095
8276
7984
8375
7914
8402
7910
8367
7982
8273
8099
8161
8205
8074
8255
8043
8256
8093
8176
8191
8075
8289
7989
8338
7965
8320
8015
8243
8129
8133
8249
8017
8350
7956
8386
7962
8348
8034
8257
8149
8156
8229
8071
8268
8071
8229
8147
8143
8256
8028
8360
7951
8405
7926
8371
7964
8281
8084
8178
8208
8072
8276
8012
8303
8015
8243
8086
8149
8196
8057
8280
8014
8297
8038
8237
8135
8146
8261
8039
8377
7947
8416
7923
8382
7966
8279
8072
8180
8188
8096
8259
8067
8265
8103
8194
8200
8089
8299
8003
8371
7962
8357
7966
8255
8067
8154
8192
8042
8308
7968
8364
7974
8339
8016
8224
8110
8139
8213
8059
8255
8051
8226
8114
8145
8219
8030
8339
7946
8406
7921
8398
7950
8308
8057
8204
8175
8105
8269
8030
8298
8045
8263
8117
8172
8221
8068
8299
8014
8327
8021
8274
8107
8166
8212
8044
8319
7950
8388
7925
8390
7966
8299
8052
8203
8166
8098
8239
8068
8263
8098
8193
8190
8095
8287
7993
8365
7943
8379
7962
8305
8049
8199
8172
8098
8284
8004
8347
7990
8332
8038
8259
8146
8160
8229
8075
8280
8048
8252
8109
8181
8213
8063
8320
7949
8388
7903
8402
7924
8330
8020
8224
8142
8120
8232
8042
8274
8037
8237
8103
8157
8213
8055
8304
7993
8341
8006
8307
8081
8204
8187
8081
8298
7975
8376
7939
8391
7972
8336
8059
8214
8159
8107
8223
8058
8254
8078
8186
8175
8101
8289
7991
8369
7932
8388
7926
8325
7998
8221
8125
8112
8241
8016
8299
7980
8302
8026
8229
8111
8127
8212
8051
8282
8038
8270
8089
8202
8191
8089
8299
7976
8388
7911
8409
7928
8361
8011
8257
8138
8162
8234
8079
8290
8073
8265
8130
8179
8226
8065
8316
7996
8366
7968
8311
8013
8219
8125
8100
8253
7994
8349
7943
8368
7961
8306
8025
8198
8136
8098
8220
8068
8266
8077
8214
8165
8117
8278
8011
8371
7936
8407
7926
8377
7990
8274
8115
8168
8218
8068
8287
8010
8307
8049
8251
8142
8152
8225
8058
8307
8024
8293
8055
8228
8146
8108
8257
7984
8362
7919
8397
7922
8369
7988
8273
8109
8168
8205
8087
8270
8068
8254
8115
8166
8204
8048
8307
7973
8363
7951
8351
8002
8271
8112
8148
8230
8040
8330
7967
8365
7984
8327
8057
8241
8169
8141
8242
8070
8280
8078
8232
8157
8142
8259
8012
8360
7926
8396
7894
8369
7947
8282
8070
8185
8192
8076
8254
8008
8271
8030
8217
8119
8114
8218
8046
8309
8006
8319
8031
8264
8140
8164
8264
8040
8349
7942
8400
7938
8386
7994
8298
8100
8194
8201
8096
8261
8074
8258
8114
8175
8211
8065
8311
7970
8358
7920
8356
7964
8285
8070
8168
8184
8061
8287
7982
8341
7982
8312
8051
8223
8157
8124
8235
8052
8281
8054
8232
8117
8147
8227
8033
8333
7940
8400
7900
8393
7941
8312
8058
8214
8181
8111
8264
8047
8283
8062
8231
8124
8141
8241
8053
8333
8008
8348
8009
8287
8101
8166
8201
8044
8297
7946
8362
7917
8362
7969
8281
8055
8172
8168
8083
8233
8049
8234
8092
8167
8186
8065
8299
7980
8394
7947
8411
7965
8335
8062
8226
8180
8121
8285
8033
8348
8030
8335
8076
8242
8176
8135
8265
8066
8305
8047
8270
8103
8172
8196
8046
8308
7946
8391
7900
8391
7921
8315
8007
8203
8128
8110
8218
8035
8250
8049
8216
8122
8137
8230
8039
8325
7975
8355
7989
8317
8067
8216
8175
8090
8285
7985
8370
7950
8377
7990
8312
8072
8203
8194
8113
8261
8065
8250
8093
8199
8190
8093
8291
7968
8369
7901
8378
7913
8329
8003
8242
8116
8122
8233
8033
8306
8015
8289
8041
8195
8129
8097
8243
8041
8313
8020
8288
8079
8200
8177
8099
8308
7985
8387
7918
8404
7938
8355
8021
8251
8136
8156
8231
8080
8277
8077
8236
8148
8155
8250
8049
8344
7976
8380
7962
8326
8012
8226
8132
8112
8253
8007
8336
7961
8355
7980
8296
8061
8197
8169
8100
8256
8055
8276
8092
8217
8187
8111
8283
7996
8380
7922
8411
7917
8369
7987
8268
8107
8155
8220
8065
8287
8037
8291
8062
8214
8158
8111
8268
8035
8321
8007
8292
8025
8206
8125
8096
8238
7972
8349
7926
8390
7936
8359
8008
8263
8123
8148
8205
8077
8261
8071
8233
8143
8150
8232
8034
8335
7957
8381
7944
8370
7996
8273
8113
8158
8230
8052
8308
7992
8351
8010
8305
8084
8208
8178
8093
8261
8048
8263
8059
8217
8143
8114
8256
7997
8356
7919
8397
7902
8380
7970
8283
8079
8180
8192
8072
8246
8019
8267
8066
8204
8156
8110
8257
8024
8329
7989
8334
8032
8276
8126
8152
8242
8031
8334
7950
8387
7939
8367
7998
8277
8119
8177
8208
8087
8257
8066
8237
8122
8162
8228
8043
8330
7954
8386
7926
8384
7965
8290
8061
8170
8176
8066
8275
7996
8318
8003
8284
8075
8206
8186
8109
8274
8045
8294
8049
8252
8133
8156
8238
8029
8337
7934
8393
7906
8394
7958
8310
8067
8208
8176
8123
8250
8053
8268
8071
8200
8162
8100
8259
8015
8334
7955
8342
7984
8280
8078
8170
8206
8071
8324
7991
8392
7975
8368
8011
8280
8095
8174
8192
8081
8241
8041
8219
8088
8157
8204
8049
8328
7957
8392
7913
8392
7951
8323
8054
8225
8166
8109
8268
8031
8321
8034
8291
8087
8204
8188
8107
8288
8036
8312
8031
8282
8113
8179
8203
8048
8304
7937
8378
7905
8388
7945
8327
8037
8210
8153
8115
8229
8056
8259
8069
8197
8147
8102
8260
8010
8338
7957
8372
7973
8318
8055
8214
8174
8102
8291
8002
8372
7986
8366
8025
8293
8105
8180
8199
8092
8271
8058
8250
8107
8176
8185
8063
8291
7956
8384
7900
8396
7915
8332
7998
8231
8127
8123
8229
8036
8282
8025
8267
8076
8185
8179
8082
8274
8012
8323
8010
8296
8075
8208
8182
8079
8286
7964
8372
7917
8379
7940
8329
8016
8233
8145
8137
8228
8069
8266
8093
8232
8179
8159
8292
8039
8371
7964
8389
7937
8328
8009
8230
8134
8117
8247
8018
8329
7977
8331
8006
8277
8085
8166
8192
8075
8267
8047
8262
8081
8209
8175
8100
8288
7979
8379
7910
8411
7920
8371
7994
8268
8118
8157
8223
8066
8266
8040
8268
8087
8182
8180
8083
8285
8005
8336
7977
8301
8021
8224
8129
8110
8257
7998
8361
7942
8388
7951
8335
8019
8242
8130
8142
8223
8074
8262
8084
8230
8161
8147
8258
8035
8362
7951
8404
7932
8374
7987
8280
8107
8167
8224
8066
8306
8017
8341
8035
8284
8096
8167
8194
8073
8268
8030
8278
8049
8217
8130
8110
8250
7985
8348
7897
8386
7889
8364
7964
8272
8078
8172
8191
8086
8264
8054
8258
8080
8174
8170
8064
8262
7982
8337
7958
8334
7986
8252
8090
8143
8220
8029
8315
7948
8374
7959
8353
8038
8266
8143
8162
8220
8080
8285
8088
8251
8166
8182
8264
8066
8382
7990
8448
7962
8414
7970
8310
8060
8195
8182
8079
8271
8014
8310
8030
8273
8106
8185
8217
8093
8295
8010
8285
8011
8239
8091
8113
8179
7974
8283
7894
8356
7874
8332
7900
8233
7996
8133
8111
8019
8156
7984
8176
8044
8167
8175
8110
8310
8039
8430
8037
8460
8056
8369
8141
8269
8276
8161
8392
8098
8460
8064
8416
8097
8347
8188
8183
8209
8041
8204
7992
8162
8033
8116
8171
8004
8285
7920
8360
7863
8337
7863
8254
7960
8164
8101
8060
8194
8010
8275
8017
8238
8115
8171
8165
7995
8220
7965
8300
7981
8259
8086
8191
8169
7984
8197
7857
8271
7861
8361
7973
8356
8071
8212
8119
8084
8235
8116
8354
8224
8340
8290
8214
8434
8150
8508
8126
8672
8323
8698
8337
8481
8322
8209
8282
8009
8332
8006
8385
8105
8343
8200
8245
8284
8085
8259
8019
8216
7995
8082
8092
7969
8140
7698
8002
7472
7966
7533
8080
7832
8125
7959
7950
8016
7860
8058
7855
8086
7980
8052
8084
7977
8251
7975
8323
7988
8379
8166
8348
8227
8130
8298
8052
8455
8084
8550
8173
8654
8458
8682
8608
8634
8750
8511
8577
8355
8477
8453
8418
8563
8272
8539
8030
8431
7914
8322
7951
8181
8016
8034
8085
7883
8155
7837
8063
7710
7901
7810
7965
8134
7996
8210
7970
8204
7907
8014
7953
7870
8016
7747
8188
7807
8341
7882
8361
7971
8249
8106
8219
8280
8188
8419
8274
8448
8258
8350
8445
8346
8582
8332
8711
8278
8585
8202
8347
8109
8086
8182
8017
8362
7986
8395
7981
8293
7965
8125
8054
8132
8302
8193
8386
8207
8368
8209
8124
8135
7870
8213
7835
8351
7857
8263
7776
8070
7810
7918
7910
7825
8070
7865
8149
7897
8079
7963
7979
8056
7920
8158
7899
8211
7935
8085
7848
7850
7976
7802
8159
7822
8338
7900
8363
7963
8310
8108
8235
8247
8155
8312
8121
8307
8136
8184
8220
8156
8388
8031
8378
7908
8318
7936
8281
8078
8195
8223
8076
8277
7951
8254
7883
8277
8008
8211
8063
8009
8092
7958
8122
7873
8044
7947
8019
8151
7983
8265
7871
8308
7849
8434
8041
8418
8129
8327
8266
8172
8281
8063
8285
7976
8085
7939
7976
8049
7944
8241
7981
8397
8139
8383
8135
8218
8254
8196
8519
8256
8680
8155
8544
8094
8426
8200
8359
8405
8452
8639
8492
8636
8419
8409
8310
8224
8520
8271
8620
8112
8510
8032
8324
7949
8115
8037
7978
8146
7932
8278
7952
8245
7974
8145
8024
8046
8108
7915
8137
7938
8155
7978
8074
8064
7922
8182
7895
8390
7947
8483
8101
8604
8321
8527
8357
8231
8158
7888
8074
7908
8087
7997
8030
8073
7904
8168
7881
8278
7977
8327
8118
8365
8374
8347
8544
8226
8552
8093
8445
7995
8321
8073
8269
8237
8187
8260
8034
8156
7957
8092
8112
8103
8308
7972
8300
7850
8333
7891
8309
7947
8130
7919
7947
8136
8039
8348
8082
8390
8132
8335
8225
8223
8313
8104
8373
8083
8314
8065
8144
8086
8043
8257
7954
8278
7792
8255
7759
8178
7871
8149
8009
8068
8102
8005
8299
8148
8350
8298
8395
8504
8375
8581
8245
8586
8147
8504
8184
8434
8280
8299
8379
8043
8206
7742
8099
7747
8076
7866
8059
8036
8058
8137
7889
8011
7851
8056
8092
8115
8289
8123
8571
8218
8687
8155
8516
8062
8362
8201
8283
8353
8306
8459
8077
8258
8016
8176
8073
8060
8135
7950
8265
8026
8411
8241
8555
8432
8319
8335
8019
8278
7870
8363
7951
8378
7950
8180
7939
7962
7919
7821
7988
7829
8008
7981
8138
8223
8046
8265
7862
8177
7729
8199
7828
8089
7878
8041
8217
8262
8640
8365
8660
8241
8508
8244
8382
8260
8189
8211
8007
8262
8123
8359
8247
8225
8263
7970
8198
7799
8319
7911
8429
7951
8231
7914
8025
8028
8040
8252
8126
8431
8190
8291
8150
8136
8256
8083
8355
8054
8434
8170
8397
8100
8098
8094
7945
8252
7878
8214
7711
8112
7736
8178
8112
8272
8201
7980
7917
7537
7681
7659
7847
7951
7841
8014
7614
7993
7548
8003
7644
8112
7945
8187
8196
8219
8526
8366
8652
8409
8777
8596
8809
8697
8577
8627
8438
8571
8205
8314
8073
8073
8107
7992
8255
7926
8462
8048
8560
8142
8529
8201
8389
8361
8373
8427
8230
8309
7963
8046
7890
7847
7978
7806
8086
7803
8168
7852
8279
8114
8294
8264
8226
8522
8329
8746
8349
8764
8356
8670
8479
8474
8261
8037
8053
7855
8032
7926
8125
8127
7993
8140
7800
8173
7773
8301
7821
8200
7849
8112
8061
8105
8249
8112
8358
8090
8356
8046
8169
8118
8163
8287
8039
8299
8036
8320
8141
8221
8044
7793
7989
7739
8157
7719
8246
7801
8226
7958
8274
8134
8128
8215
8106
8310
8082
8095
7943
7968
8095
7960
8283
7989
8479
8119
8395
7929
8113
7980
7976
8074
7768
8042
7743
8177
7884
8191
8031
8320
8441
8444
8487
8139
8228
8070
8214
8141
8030
8214
8140
8701
8235
8601
8113
8636
8371
8688
8443
8431
8459
8314
8458
8114
8264
8016
8118
8056
8023
8171
8014
8404
8169
8435
8002
8106
7984
7993
8250
8195
8659
8142
8359
7706
8008
7683
8010
7931
8026
8097
7968
8076
7909
8095
8035
8061
8108
7903
8203
7823
8205
7803
8272
7836
7940
7648
7728
7924
7920
8376
8245
8618
8217
8447
8231
8399
8351
8285
8378
8129
8334
8262
8523
8367
8199
8290
8175
8673
8250
8596
7984
8358
7871
8232
8007
8058
7962
7854
8051
7931
8170
7976
8081
8049
8090
8364
8308
8732
8482
8840
8438
8571
8373
8456
8571
8384
8656
8234
8554
8030
8348
7901
8085
7911
8006
8039
7913
8013
7850
8024
7929
7959
8025
7893
8133
7735
8124
7713
8185
7779
8155
7950
8131
8136
8078
8274
8010
8347
8043
8246
7952
8023
7938
7881
8078
7903
8079
7738
7962
7862
7938
8002
7903
8375
8180
8670
8094
8485
8036
8413
8138
8290
8272
8316
8493
8361
8566
8352
8382
8261
8193
8334
8117
8413
8010
8332
7883
8150
7922
8127
8138
7951
8099
7748
8145
7824
8277
7901
8144
7959
8107
8180
8105
8314
8205
8483
8428
8534
8583
8401
8560
8182
8550
8038
8437
7942
8306
7987
8211
8094
8026
8144
8028
8394
8177
8487
8266
8276
8124
7964
8084
7892
8188
7937
8233
8028
8142
8124
7979
8178
7868
8369
8023
8569
8141
8453
8015
8137
8010
7967
8013
7852
8049
7918
8068
7981
7875
7988
7808
8164
7827
8243
7842
8204
7994
8267
8205
8200
8368
8191
8596
8329
8709
8420
8721
8525
8591
8553
8400
8486
8182
8216
7918
7944
7847
7726
7924
7592
7945
7517
8052
7696
8206
7906
8179
8037
8057
8180
8142
8360
8062
8251
8052
8169
8190
8168
8367
8132
8444
8148
8466
8253
8483
8450
8383
8598
8404
8830
8389
8655
7981
8233
7873
8059
7939
7984
8105
7979
8076
7834
7936
7923
7956
8096
7870
8197
7870
8349
7947
8427
8136
8500
8480
8595
8656
8317
8446
8065
8377
8023
8299
8159
8274
8288
8097
8147
7900
8134
7965
8126
8068
7992
8175
7956
8355
7944
8418
7906
8297
7863
8164
8006
8121
8175
8109
8344
8149
8357
8206
8328
8235
8059
8207
7920
8144
7752
8043
7669
7843
7693
7698
7849
7772
8199
7941
8469
8111
8555
8322
8601
8473
8493
8489
8308
8410
8194
8349
8283
8330
8460
8218
8434
7964
8342
7880
8376
8012
8349
8122
8171
8169
8023
8240
7975
8240
7968
8268
8103
8162
8138
7967
8118
7940
8225
7962
8086
7955
7995
8194
8057
8398
7892
8226
7623
8013
7580
7952
7885
8194
8250
8114
8160
7911
8033
7918
8058
8065
8018
8248
8042
8454
8143
8581
8292
8644
8468
8563
8543
8238
8359
7942
8271
7892
8276
7971
8222
8064
8149
8238
8123
8274
8075
8240
8145
8188
8181
7913
8179
7913
8458
7981
8414
7979
8401
8164
8307
8208
8067
8164
7902
8116
7881
8141
8057
8215
8227
8051
8178
7865
8159
7961
8260
8159
8273
8323
8157
8423
8123
8654
8232
8610
8080
8369
8106
8354
8423
8436
8520
8205
8270
8041
8103
8126
8198
8386
8014
8310
7949
8413
8042
8404
8130
8261
8183
8091
8238
7930
8222
7820
8101
7792
8039
7947
8049
8121
8041
8315
8190
8397
8212
8240
8219
8046
8259
7921
8336
7852
8357
7926
8375
8078
8298
8185
8199
8305
8155
8411
8181
8321
8080
8168
8222
8073
8226
7915
8173
7858
8127
7830
7923
7883
7796
8014
7747
8181
7763
8165
7778
8179
7942
8162
8106
8099
8235
8149
8408
8307
8451
8419
8313
8401
8091
8406
7992
8445
8016
8389
