EMG
8120
7967
8105
7995
8073
8039
8052
8082
8037
8099
8031
8085
8056
8052
8088
8018
8129
8007
8159
8001
8144
8018
8101
8046
8059
8086
8004
8103
7973
8093
7975
8069
8001
8038
8037
8005
8058
7985
8054
7984
8041
8023
8012
8077
7988
8122
7966
8137
7961
8116
7980
8083
8017
8051
8066
8030
8105
8024
8113
8042
8084
8070
8041
8094
8020
8127
8010
8132
8022
8109
8055
8056
8090
8007
8118
7976
8123
7966
8102
7984
8062
8007
8023
8037
7991
8057
7997
8055
8014
8022
8056
7988
8099
7968
8121
7960
8112
7970
8082
8016
8048
8053
8004
8092
7986
8110
8010
8106
8047
8090
8088
8046
8111
8027
8119
8026
8097
8055
8055
8098
8016
8136
7994
8158
7984
8143
7982
8086
8006
8043
8037
8002
8056
7978
8057
8002
8044
8024
8010
8064
7968
8094
7965
8103
7984
8080
8022
8043
8058
7999
8100
7972
8111
7972
8116
8008
8104
8056
8071
8091
8047
8116
8046
8106
8064
8078
8096
8036
8142
8010
8162
7993
8152
7993
8111
8015
8061
8049
8013
8075
7980
8077
7969
8047
7985
8026
8032
7999
8074
7985
8087
7987
8075
8021
8043
8074
8018
8124
7982
8129
7948
8109
7957
8095
8021
8079
8081
8053
8109
8042
8118
8053
8092
8081
8060
8117
8029
8152
8010
8152
8009
8124
8032
8077
8069
8029
8100
7976
8110
7968
8095
7982
8056
8007
8024
8046
8008
8070
7992
8067
8011
8038
8050
7995
8093
7966
8126
7957
8129
7961
8106
8011
8082
8056
8048
8101
8032
8126
8042
8126
8066
8095
8096
8053
8122
8026
8132
8032
8137
8060
8092
8096
8039
8119
7994
8136
7963
8121
7967
8094
7994
8048
8030
8004
8042
7983
8049
7992
8033
8026
8014
8074
7980
8108
7968
8128
7978
8113
8009
8066
8045
8016
8083
8001
8126
7996
8134
8027
8111
8063
8080
8107
8060
8124
8045
8119
8058
8093
8096
8057
8133
8013
8159
7992
8157
7989
8133
8010
8080
8033
8027
8054
7994
8065
7972
8062
8014
8052
8057
8015
8093
7993
8104
7985
8096
8010
8069
8060
8037
8108
7994
8121
7982
8149
8003
8134
8043
8107
8086
8081
8126
8074
8125
8064
8106
8088
8060
8119
8040
8165
8010
8167
8001
8142
8023
8098
8055
8041
8080
7997
8095
7972
8080
7977
8064
8013
8034
8053
8008
8078
7993
8077
8002
8057
8043
8032
8107
8002
8140
7980
8150
7979
8132
8006
8108
8048
8066
8099
8060
8136
8057
8124
8074
8093
8096
8054
8130
8031
8166
8027
8145
8036
8107
8065
8051
8095
7998
8116
7975
8112
7968
8090
7980
8049
8028
8022
8070
8012
8079
8015
8059
8038
8021
8072
7991
8119
7971
8135
7967
8115
7979
8087
8032
8062
8094
8033
8121
8032
8142
8059
8138
8088
8099
8127
8071
8147
8053
8148
8068
8127
8097
8077
8127
8024
8140
7980
8144
7960
8116
7973
8074
8005
8028
8051
8005
8070
8002
8062
8012
8039
8050
8006
8087
7979
8110
7973
8117
7998
8091
8042
8062
8092
8018
8131
8003
8145
8010
8146
8048
8121
8097
8084
8119
8065
8137
8058
8121
8094
8094
8133
8058
8157
8008
8155
7991
8151
8004
8109
8025
8063
8057
8008
8074
7980
8082
7991
8068
8025
8033
8065
8007
8088
7992
8102
8000
8082
8044
8055
8091
8008
8128
7990
8149
7981
8153
8016
8129
8068
8104
8107
8073
8130
8064
8127
8071
8104
8111
8070
8155
8040
8162
8014
8174
8030
8151
8065
8092
8094
8031
8106
7986
8097
7957
8073
7983
8055
8031
8027
8075
8007
8083
8002
8067
8036
8047
8078
8022
8124
7988
8150
7977
8151
7994
8127
8043
8097
8085
8074
8137
8065
8148
8071
8126
8087
8093
8117
8047
8143
8031
8159
8045
8131
8078
8093
8111
8041
8152
7996
8145
7976
8124
7977
8077
7992
8038
8043
8021
8076
8010
8074
8023
8052
8061
8026
8095
7993
8134
7983
8146
7998
8122
8028
8081
8072
8048
8125
8027
8143
8036
8155
8073
8132
8102
8089
8128
8061
8136
8054
8135
8074
8094
8101
8043
8132
8004
8156
7982
8149
7988
8119
8011
8068
8041
8020
8063
7998
8082
8011
8067
8031
8040
8066
8005
8106
7991
8124
8002
8107
8028
8081
8087
8050
8123
8009
8155
8024
8171
8042
8155
8080
8132
8124
8088
8141
8071
8134
8069
8098
8094
8064
8139
8026
8167
8009
8164
8014
8158
8032
8092
8051
8031
8068
7982
8084
7984
8088
8006
8064
8046
8035
8081
8012
8101
8010
8104
8034
8075
8075
8038
8116
8005
8149
7985
8154
7998
8152
8039
8123
8094
8088
8134
8076
8148
8080
8143
8107
8106
8140
8069
8162
8032
8167
8018
8139
8027
8093
8071
8040
8100
7999
8120
7977
8118
7985
8096
8026
8060
8055
8026
8077
8013
8081
8022
8064
8065
8037
8105
8012
8142
7991
8163
7989
8139
8011
8105
8064
8074
8116
8057
8152
8067
8159
8077
8130
8102
8085
8129
8055
8143
8036
8137
8054
8110
8089
8064
8123
8017
8165
7996
8139
7980
8122
8002
8077
8030
8043
8066
8013
8086
8022
8080
8044
8049
8079
8010
8124
8002
8149
8007
8149
8032
8109
8060
8069
8108
8041
8161
8026
8171
8044
8166
8083
8125
8118
8087
8138
8066
8143
8074
8127
8102
8085
8138
8043
8179
8012
8172
7992
8148
8016
8111
8046
8061
8076
8022
8089
8002
8088
8018
8070
8054
8038
8085
8004
8116
8009
8117
8031
8104
8074
8070
8116
8026
8142
7993
8153
7998
8140
8044
8143
8090
8105
8138
8084
8143
8063
8128
8090
8101
8126
8062
8165
8023
8168
8011
8169
8027
8126
8055
8068
8083
8014
8096
7982
8105
7994
8103
8030
8071
8058
8031
8091
8027
8116
8037
8112
8071
8062
8102
8016
8130
7983
8156
7986
8172
8027
8144
8065
8110
8122
8087
8153
8078
8155
8087
8128
8115
8108
8166
8080
8190
8047
8157
8039
8126
8068
8075
8104
8029
8129
7993
8134
7987
8127
7998
8089
8039
8062
8078
8031
8094
8023
8091
8051
8071
8101
8050
8162
8034
8202
8012
8160
8006
8115
8032
8088
8099
8057
8145
8055
8168
8067
8160
8089
8126
8125
8086
8148
8062
8166
8079
8164
8101
8103
8125
8043
8157
7998
8166
7990
8147
7990
8105
8013
8064
8052
8025
8077
8009
8087
8021
8071
8064
8051
8112
8031
8144
8015
8142
8009
8114
8032
8068
8075
8036
8132
8027
8159
8035
8181
8067
8157
8103
8121
8131
8084
8145
8076
8138
8099
8116
8120
8060
8151
8026
8176
8004
8170
8005
8127
8026
8080
8060
8029
8083
8001
8091
8002
8098
8033
8077
8082
8052
8117
8031
8123
8030
8125
8061
8081
8093
8041
8129
7989
8159
7999
8172
8020
8153
8066
8135
8124
8107
8139
8081
8146
8080
8119
8104
8088
8144
8049
8175
8035
8171
8024
8141
8045
8098
8083
8048
8118
7995
8113
7980
8106
7989
8089
8034
8057
8075
8034
8098
8024
8094
8033
8070
8082
8040
8127
8015
8157
7995
8166
8001
8164
8046
8123
8099
8103
8166
8089
8169
8073
8153
8085
8109
8113
8071
8155
8069
8172
8058
8164
8078
8114
8111
8070
8145
8004
8145
7987
8143
7983
8118
8010
8078
8056
8045
8088
8029
8102
8044
8097
8083
8070
8124
8039
8156
8004
8153
7994
8133
8029
8110
8081
8077
8133
8056
8184
8056
8180
8063
8143
8091
8116
8133
8085
8154
8069
8151
8088
8124
8115
8079
8157
8027
8182
8006
8169
7997
8144
8009
8091
8038
8044
8072
8018
8102
8023
8098
8040
8076
8084
8046
8122
8025
8144
8021
8142
8049
8119
8091
8073
8139
8038
8179
8033
8178
8034
8183
8079
8149
8113
8114
8143
8080
8141
8086
8143
8121
8112
8148
8058
8169
8022
8179
8008
8173
8036
8111
8053
8066
8089
8017
8101
7991
8111
8012
8101
8056
8061
8085
8035
8113
8032
8133
8053
8119
8101
8078
8143
8018
8146
7989
8163
8001
8187
8052
8172
8101
8126
8140
8090
8155
8077
8144
8081
8117
8136
8101
8189
8070
8176
8041
8172
8049
8131
8082
8075
8111
8016
8116
7980
8129
7992
8131
8028
8101
8060
8057
8089
8027
8097
8033
8086
8071
8073
8115
8034
8161
8018
8180
8001
8157
8028
8151
8083
8109
8128
8079
8171
8070
8177
8081
8157
8108
8125
8133
8089
8175
8079
8185
8073
8131
8083
8072
8119
8038
8160
7998
8164
7994
8147
8004
8108
8036
8066
8073
8041
8098
8034
8108
8049
8078
8083
8048
8121
8019
8167
8020
8175
8044
8153
8072
8098
8116
8062
8162
8046
8207
8066
8202
8091
8152
8115
8111
8135
8082
8151
8077
8145
8101
8113
8132
8065
8175
8023
8179
8004
8163
7999
8118
8032
8069
8064
8025
8102
8030
8129
8039
8114
8059
8073
8091
8032
8109
8008
8137
8041
8127
8077
8097
8118
8041
8159
8024
8191
8029
8202
8069
8194
8111
8164
8146
8102
8142
8066
8140
8089
8138
8136
8089
8164
8054
8184
8033
8182
8028
8158
8048
8093
8080
8044
8123
8012
8126
7991
8118
8021
8094
8065
8064
8102
8046
8126
8044
8110
8068
8092
8111
8055
8159
8021
8177
8004
8186
8024
8168
8064
8153
8128
8117
8165
8089
8168
8080
8143
8094
8107
8134
8085
8180
8067
8190
8055
8159
8070
8105
8097
8042
8126
8003
8147
7979
8132
7987
8104
8023
8076
8073
8057
8122
8063
8127
8066
8095
8091
8057
8123
8013
8154
8005
8164
8021
8161
8053
8141
8111
8097
8177
8082
8200
8071
8177
8084
8155
8116
8104
8140
8073
8158
8070
8148
8081
8117
8112
8078
8169
8035
8179
7996
8162
7993
8133
8019
8096
8056
8053
8093
8041
8122
8046
8113
8078
8085
8107
8043
8133
8021
8154
8030
8159
8051
8109
8087
8069
8161
8055
8199
8053
8226
8075
8200
8102
8151
8140
8111
8156
8090
8150
8093
8132
8123
8099
8170
8058
8195
8025
8179
7999
8134
8017
8107
8069
8069
8106
8030
8119
8012
8108
8020
8092
8070
8067
8105
8044
8128
8039
8138
8071
8126
8109
8079
8152
8032
8183
8021
8190
8029
8197
8074
8170
8119
8129
8151
8092
8160
8088
8143
8103
8130
8155
8089
8171
8041
8176
8032
8176
8053
8137
8079
8073
8112
8019
8142
8004
8133
8001
8119
8041
8096
8085
8061
8107
8049
8123
8063
8105
8091
8080
8135
8038
8179
8016
8180
8016
8185
8055
8168
8110
8142
8165
8109
8184
8079
8166
8078
8129
8103
8098
8143
8081
8172
8070
8187
8078
8145
8095
8078
8118
8015
8144
7994
8158
7991
8140
8013
8107
8057
8072
8091
8050
8112
8048
8116
8071
8089
8109
8054
8149
8027
8180
8031
8178
8046
8149
8085
8115
8143
8076
8181
8058
8201
8063
8176
8095
8145
8128
8101
8153
8085
8162
8083
8142
8102
8106
8156
8055
8179
8019
8175
8003
8183
8030
8158
8061
8087
8077
8023
8098
8021
8112
8037
8092
8086
8074
8114
8042
8156
8039
8162
8058
8149
8089
8093
8120
8063
8191
8042
8203
8046
8207
8067
8159
8097
8123
8137
8097
8155
8085
8152
8123
8134
8144
8083
8178
8044
8186
8025
8188
8032
8152
8059
8098
8093
8043
8117
8007
8121
8011
8116
8038
8087
8085
8069
8122
8057
8147
8074
8139
8083
8095
8131
8061
8180
8025
8203
8029
8190
8042
8190
8093
8153
8143
8106
8155
8082
8156
8091
8139
8120
8106
8146
8070
8177
8049
8169
8048
8159
8082
8098
8104
8053
8142
8018
8154
8006
8141
8015
8115
8060
8085
8096
8054
8114
8052
8117
8073
8096
8121
8079
8173
8038
8195
8013
8186
8030
8180
8072
8139
8125
8103
8171
8078
8183
8070
8171
8089
8135
8130
8103
8169
8093
8192
8079
8164
8085
8104
8110
8052
8156
8013
8169
8001
8163
8007
8134
8037
8096
8083
8070
8118
8051
8124
8058
8113
8087
8075
8130
8056
8182
8051
8202
8054
8185
8082
8143
8131
8081
8161
8051
8191
8051
8188
8066
8161
8096
8120
8134
8094
8157
8090
8155
8101
8125
8127
8083
8175
8034
8177
8005
8172
8010
8145
8031
8104
8079
8068
8123
8041
8132
8031
8128
8060
8106
8104
8080
8142
8060
8166
8051
8140
8073
8113
8122
8072
8171
8042
8203
8028
8225
8052
8197
8090
8159
8123
8109
8150
8087
8150
8087
8145
8128
8110
8157
8078
8194
8046
8195
8043
8169
8046
8099
8069
8045
8099
8012
8139
8016
8149
8034
8125
8072
8095
8110
8074
8137
8067
8139
8080
8113
8117
8084
8160
8038
8194
8023
8187
8034
8190
8068
8170
8123
8123
8161
8086
8173
8087
8168
8100
8133
8132
8098
8168
8072
8175
8062
8174
8076
8137
8105
8069
8146
8027
8171
8007
8167
8006
8143
8041
8105
8079
8072
8109
8056
8124
8064
8109
8099
8094
8140
8059
8189
8038
8202
8036
8184
8063
8165
8104
8101
8160
8073
8192
8067
8186
8082
8168
8107
8132
8138
8099
8165
8081
8163
8091
8135
8121
8092
8161
8046
8178
8008
8174
8000
8152
8028
8127
8081
8093
8119
8060
8125
8037
8118
8067
8106
8105
8074
8141
8044
8168
8043
8173
8059
8128
8094
8095
8158
8058
8194
8045
8211
8057
8200
8083
8156
8116
8119
8149
8092
8163
8102
8154
8121
8113
8169
8080
8201
8035
8184
8018
8174
8026
8122
8064
8078
8102
8046
8141
8039
8145
8040
8113
8069
8104
8125
8078
8159
8072
8160
8078
8138
8111
8088
8150
8049
8188
8033
8210
8038
8219
8073
8185
8111
8133
8143
8094
8158
8087
8160
8112
8146
8145
8101
8173
8067
8189
8046
8174
8047
8144
8076
8093
8120
8040
8142
8011
8164
8014
8147
8045
8114
8086
8088
8120
8067
8140
8065
8131
8101
8105
8144
8065
8186
8036
8184
8021
8202
8054
8167
8100
8149
8149
8094
8182
8078
8197
8090
8156
8113
8124
8150
8099
8161
8060
8161
8066
8135
8092
8100
8146
8050
8162
8007
8173
8006
8165
8023
8138
8070
8096
8096
8072
8136
8065
8135
8074
8105
8111
8074
8147
8049
8181
8033
8183
8041
8165
8097
8136
8147
8086
8190
8060
8196
8047
8164
8061
8135
8108
8102
8135
8089
8171
8095
8167
8117
8121
8160
8075
8182
8033
8186
8006
8181
8019
8140
8047
8094
8091
8068
8126
8056
8143
8055
8132
8088
8104
8123
8069
8155
8059
8179
8071
8160
8095
8109
8145
8074
8186
8044
8217
8054
8229
8070
8189
8104
8140
8136
8114
8164
8098
8167
8119
8143
8139
8106
8181
8055
8182
8030
8190
8035
8160
8060
8102
8094
8054
8129
8029
8148
8031
8152
8056
8128
8097
8094
8126
8071
8147
8071
8147
8109
8127
8147
8073
8174
8031
8201
8029
8203
8043
8190
8083
8158
8130
8114
8175
8096
8172
8095
8160
8121
8125
8143
8079
8173
8067
8186
8061
8170
8083
8119
8117
8068
8161
8024
8163
8020
8168
8036
8154
8069
8116
8100
8073
8123
8069
8138
8089
8129
8135
8103
8179
8065
8199
8015
8166
8006
8165
8064
8151
8140
8116
8179
8084
8189
8058
8169
8075
8134
8110
8121
8163
8096
8177
8081
8177
8090
8126
8125
8080
8164
8028
8185
8005
8164
8013
8155
8043
8119
8086
8090
8125
8064
8136
8065
8124
8091
8099
8130
8068
8167
8057
8197
8050
8177
8075
8140
8122
8097
8182
8071
8214
8060
8225
8061
8186
8102
8146
8136
8116
8160
8100
8174
8117
8149
8140
8099
8165
8051
8183
8006
8168
8001
8168
8044
8124
8077
8075
8116
8043
8137
8038
8142
8052
8121
8095
8091
8141
8080
8169
8080
8182
8090
8146
8124
8084
8158
8042
8193
8023
8229
8053
8214
8084
8180
8123
8132
8155
8100
8166
8096
8155
8117
8133
8145
8082
8174
8053
8183
8045
8176
8056
8127
8074
8072
8123
8042
8165
8022
8167
8037
8146
8068
8113
8111
8087
8132
8074
8147
8083
8134
8119
8112
8162
8063
8188
8032
8225
8042
8206
8071
8187
8116
8149
8171
8103
8187
8083
8173
8101
8156
8135
8138
8172
8097
8187
8076
8180
8075
8153
8111
8091
8142
8038
8171
8020
8181
8017
8180
8052
8140
8084
8102
8118
8072
8140
8074
8137
8096
8106
8140
8083
8188
8054
8191
8032
8190
8057
8172
8097
8133
8163
8099
8203
8076
8204
8074
8195
8103
8149
8136
8120
8164
8090
8171
8092
8146
8113
8111
8157
8059
8184
8022
8185
8011
8183
8033
8154
8064
8099
8105
8068
8135
8062
8150
8072
8127
8109
8096
8137
8058
8160
8052
8185
8071
8160
8105
8116
8152
8067
8189
8048
8218
8057
8216
8079
8177
8108
8137
8152
8102
8175
8102
8151
8090
8100
8130
8071
8161
8036
8177
8012
8182
8032
8147
8055
8101
8104
8066
8135
8032
8146
8032
8140
8068
8120
8109
8089
8143
8072
8157
8078
8145
8101
8100
8132
8064
8179
8036
8206
8031
8220
8069
8207
8109
8161
8153
8107
8159
8074
8154
8083
8140
8124
8110
8158
8088
8190
8057
8198
8063
8164
8082
8104
8117
8053
8156
8019
8166
8018
8161
8039
8141
8079
8109
8118
8082
8143
8073
8143
8104
8125
8137
8085
8176
8042
8199
8028
8214
8054
8198
8093
8161
8158
8113
8185
8092
8196
8080
8173
8101
8158
8145
8123
8180
8099
8201
8089
8181
8103
8122
8144
8072
8171
8040
8205
8014
8196
8039
8183
8071
8133
8118
8100
8136
8074
8144
8088
8141
8125
8113
8167
8085
8201
8055
8195
8046
8171
8079
8141
8122
8094
8179
8075
8214
8066
8220
8070
8180
8106
8131
8150
8117
8181
8105
8186
8110
8139
8139
8087
8176
8040
8195
8021
8196
8029
8179
8050
8126
8105
8089
8136
8067
8151
8054
8138
8072
8119
8120
8098
8161
8063
8172
8077
8173
8088
8123
8117
8079
8171
8051
8215
8046
8233
8062
8207
8091
8158
8117
8105
8152
8096
8164
8105
8148
8124
8112
8159
8068
8172
8046
8193
8034
8176
8065
8137
8098
8087
8149
8054
8179
8042
8166
8047
8138
8080
8109
8121
8086
8149
8079
8161
8088
8124
8114
8080
8164
8045
8202
8039
8213
8039
8201
8077
8184
8126
8127
8170
8099
8190
8094
8182
8117
8155
8148
8115
8188
8086
8203
8076
8199
8090
8154
8118
8089
8147
8036
8173
8013
8184
8038
8195
8081
8148
8111
8104
8131
8081
8146
8081
8137
8116
8115
8167
8085
8201
8053
8206
8028
8188
8050
8158
8105
8132
8176
8092
8192
8072
8182
8068
8160
8100
8137
8145
8102
8169
8088
8185
8099
8157
8123
8098
8162
8048
8189
8026
8190
8018
8189
8050
8157
8087
8102
8114
8068
8144
8071
8146
8096
8136
8128
8102
8170
8072
8174
8031
8150
8040
8126
8091
8090
8150
8077
8205
8056
8212
8049
8190
8078
8158
8115
8119
8152
8097
8161
8094
8150
8122
8130
8163
8073
8191
8039
8193
8018
8178
8037
8148
8070
8101
8120
8073
8169
8059
8167
8067
8154
8098
8124
8136
8090
8156
8075
8168
8078
8156
8108
8108
8157
8071
8200
8042
8228
8047
8225
8066
8188
8103
8133
8142
8111
8166
8100
8182
8118
8157
8151
8128
8189
8082
8217
8055
8193
8053
8161
8092
8110
8142
8060
8166
8034
8174
8031
8174
8063
8143
8099
8108
8136
8084
8154
8090
8148
8105
8116
8134
8066
8179
8039
8206
8023
8197
8046
8184
8087
8145
8145
8102
8177
8081
8176
8082
8155
8110
8139
8158
8114
8185
8093
8204
8087
8165
8096
8107
8125
8056
8166
8021
8184
8011
8175
8037
8168
8080
8131
8126
8099
8150
8085
8157
8104
8141
8139
8103
8181
8071
8209
8065
8226
8081
8208
8113
8161
8140
8088
8171
8065
8206
8062
8199
8088
8161
8134
8147
8173
8112
8183
8104
8184
8116
8132
8154
8089
8191
8048
8207
8026
8207
8037
8178
8068
8144
8115
8095
8138
8063
8148
8065
8142
8095
8118
8131
8093
8179
8077
8196
8069
8167
8085
8135
8137
8090
8195
8064
8223
8054
8228
8068
8190
8087
8142
8134
8117
8170
8105
8171
8104
8145
8141
8106
8182
8068
8196
8034
8193
8035
8166
8057
8119
8109
8085
8149
8058
8161
8049
8171
8071
8146
8097
8107
8140
8090
8165
8082
8175
8102
8138
8128
8085
8184
8055
8209
8046
8230
8047
8203
8081
8170
8121
8119
8168
8093
8173
8101
8170
8119
8134
8155
8103
8194
8072
8203
8060
8175
8076
8142
8107
8075
8150
8033
8177
8018
8177
8036
8166
8073
8133
8116
8101
8146
8093
8164
8097
8134
8119
8098
8151
8061
8201
8042
8225
8042
8208
8087
8184
8137
8141
8184
8096
8196
8075
8192
8108
8170
8133
8135
8166
8096
8179
8089
8189
8095
8129
8103
8078
8151
8035
8188
8022
8190
8026
8183
8048
8138
8083
8100
8126
8077
8158
8083
8152
8109
8132
8143
8088
8173
8066
8204
8054
8191
8081
8165
8134
8131
8185
8092
8218
8073
8216
8072
8199
8105
8161
8141
8131
8164
8107
8181
8107
8155
8126
8111
8168
8068
8187
8031
8189
8020
8184
8043
8154
8078
8101
8124
8067
8147
8058
8166
8082
8147
8105
8122
8158
8091
8177
8075
8179
8075
8147
8110
8108
8166
8078
8210
8056
8235
8059
8218
8078
8182
8110
8134
8150
8105
8170
8103
8163
8113
8137
8149
8097
8189
8059
8189
8041
8188
8053
8157
8081
8099
8117
8059
8170
8056
8189
8056
8175
8081
8145
8125
8116
8150
8093
8165
8093
8150
8109
8101
8146
8075
8201
8044
8232
8048
8224
8073
8198
8106
8145
8148
8095
8178
8080
8176
8097
8162
8133
8129
8168
8095
8184
8076
8189
8071
8163
8098
8102
8140
8047
8169
8019
8190
8020
8173
8040
8149
8081
8106
8113
8081
8147
8088
8162
8116
8143
8176
8127
8222
8088
8239
8066
8215
8068
8192
8105
8153
8159
8107
8198
8086
8208
8079
8185
8091
8155
8132
8126
8171
8105
8197
8097
8174
8123
8119
8150
8062
8180
8030
8198
8023
8203
8034
8176
8071
8132
8123
8096
8153
8080
8157
8089
8141
8120
8119
8162
8094
8190
8070
8195
8070
8178
8101
8147
8168
8105
8209
8069
8215
8050
8200
8065
8182
8114
8143
8144
8109
8162
8090
8156
8104
8134
8136
8087
8179
8045
8187
8024
8198
8042
8189
8079
8141
8117
8090
8152
8055
8163
8054
8151
8079
8134
8118
8099
8150
8079
8170
8078
8168
8098
8126
8149
8091
8198
8062
8241
8058
8248
8067
8208
8098
8167
8134
8116
8164
8100
8179
8113
8162
8126
8125
8165
8087
8203
8063
8195
8054
8171
8072
8119
8107
8072
8159
8047
8189
8037
8190
8063
8179
8106
8135
8132
8105
8153
8089
8156
8103
8134
8133
8090
8177
8065
8214
8046
8239
8064
8218
8101
8180
8149
8141
8183
8096
8198
8094
8192
8105
8155
8138
8120
8169
8089
8184
8081
8177
8089
8126
8122
8078
8164
8037
8194
8019
8188
8029
8183
8068
8141
8109
8103
8146
8089
8168
8098
8155
8126
8128
8164
8094
8205
8063
8208
8055
8190
8076
8155
8117
8116
8181
8081
8216
8071
8227
8084
8188
8107
8155
8151
8120
8176
8102
8173
8113
8144
8131
8097
8167
8053
8191
8023
8207
8025
8193
8051
8148
8093
8100
8138
8071
8165
8067
8156
8085
8145
8125
8104
8166
8084
8195
8083
8198
8104
8170
8145
8134
8194
8077
8219
8061
8239
8063
8215
8100
8193
8149
8151
8196
8126
8179
8103
8157
8119
8117
8147
8065
8165
8031
8172
8019
8164
8031
8117
8072
8083
8130
8053
8175
8054
8180
8065
8173
8114
8164
8167
8131
8181
8100
8173
8091
8154
8119
8102
8178
8077
8220
8058
8250
8072
8233
8085
8191
8123
8156
8169
8112
8197
8104
8202
8117
8156
8137
8108
8167
8072
8184
8051
8169
8056
8130
8082
8081
8145
8050
8182
8025
8184
8035
8171
8050
8144
8101
8106
8138
8100
8184
8117
8165
8121
8131
8174
8099
8213
8072
8237
8058
8225
8083
8204
8144
8160
8180
8113
8198
8073
8180
8070
8170
8105
8142
8143
8105
8177
8093
8190
8085
8158
8111
8105
8153
8062
8182
8018
8198
8018
8193
8038
8171
8084
8116
8133
8095
8158
8089
8167
8101
8141
8131
8110
8170
8074
8190
8060
8200
8075
8177
8122
8147
8171
8098
8208
8072
8237
8059
8208
8086
8181
8124
8136
8163
8109
8170
8103
8153
8106
8122
8144
8081
8192
8052
8203
8019
8188
8031
8162
8078
8119
8119
8079
8167
8062
8164
8067
8157
8095
8129
8140
8104
8174
8078
8185
8083
8170
8120
8146
8163
8093
8216
8065
8247
8061
8246
8079
8196
8101
8159
8139
8113
8168
8097
8172
8104
8143
8132
8104
8159
8056
8171
8036
8188
8043
8161
8074
8111
8121
8073
8173
8050
8187
8040
8170
8057
8143
8099
8116
8141
8100
8163
8087
8148
8105
8118
8140
8088
8197
8055
8232
8052
8232
8073
8219
8113
8175
8156
8123
8184
8090
8195
8095
8175
8111
8141
8150
8107
8176
8083
8196
8074
8180
8095
8125
8140
8072
8181
8052
8221
8040
8206
8045
8192
8089
8141
8124
8111
8161
8098
8175
8118
8161
8145
8121
8187
8079
8210
8062
8227
8081
8211
8105
8174
8162
8123
8198
8096
8220
8082
8206
8092
8187
8127
8141
8161
8113
8180
8094
8177
8104
8129
8129
8075
8162
8036
8194
8017
8199
8028
8175
8057
8147
8103
8098
8142
8081
8166
8083
8166
8108
8134
8140
8088
8169
8066
8192
8070
8188
8090
8150
8152
8111
8198
8085
8229
8060
8234
8070
8209
8107
8173
8138
8123
8167
8104
8170
8106
8144
8119
8103
8149
8062
8191
8034
8197
8030
8174
8048
8141
8095
8086
8134
8060
8175
8059
8177
8079
8159
8121
8133
8167
8127
8224
8120
8207
8120
8163
8153
8114
8192
8087
8251
8064
8259
8072
8233
8103
8192
8134
8137
8185
8120
8192
8104
8174
8122
8148
8155
8099
8175
8065
8185
8052
8185
8069
8147
8108
8098
8162
8062
8194
8048
8204
8049
8188
8076
8145
8123
8116
8159
8100
8170
8107
8154
8126
8113
8179
8085
8220
8064
8255
8067
8227
8090
8195
8122
8138
8163
8091
8191
8085
8218
8107
8171
8126
8134
8158
8097
8172
8077
8173
8087
8132
8107
8093
8154
8048
8185
8018
8191
8030
8197
8056
8163
8101
8124
8138
8100
8163
8098
8169
8114
8132
8141
8095
8185
8060
8207
8061
8208
8092
8187
8135
8140
8171
8084
8194
8052
8202
8065
8196
8100
8157
8126
8125
8160
8104
8200
8126
8162
8120
8107
8164
8077
8200
8037
8206
8031
8212
8062
8180
8104
8143
8150
8082
8170
8073
8168
8081
8150
8112
8124
8157
8095
8176
8075
8185
8083
8179
8118
8142
8184
8097
8224
8073
8249
8070
8238
8083
8202
8121
8145
8157
8108
8167
8106
8166
8111
8133
8148
8093
8179
8049
8188
8040
8201
8057
8162
8083
8113
8141
8072
8176
8055
8197
8063
8176
8085
8157
8125
8119
8159
8099
8177
8101
8166
8123
8127
8175
8097
8228
8081
8263
8075
8254
8076
8210
8114
8162
8153
8110
8185
8096
8179
8100
8162
8123
8114
8143
8081
8169
8056
8183
8067
8156
8080
8105
8133
8056
8170
8036
8198
8031
8184
8041
8154
8082
8121
8128
8097
8153
8084
8156
8102
8127
8138
8093
8175
8060
8204
8047
8225
8061
8199
8105
8166
8155
8112
8196
8089
8209
8084
8192
8101
8153
8127
8118
8156
8088
8171
8086
8167
8097
8121
8145
8073
8179
8041
8206
8030
8217
8050
8194
8086
8151
8119
8111
8159
8095
8175
8102
8168
8135
8132
8163
8097
8201
8081
8215
8076
8206
8122
8179
8183
8136
8220
8088
8246
8078
8249
8091
8217
8140
8187
8178
8138
8179
8103
8153
8091
8119
8114
8084
8172
8053
8196
8030
8208
8053
8190
8084
8161
8143
8123
8190
8105
8198
8073
8175
8089
8144
8127
8113
8167
8098
8183
8088
8192
8126
8161
8171
8127
8216
8090
8257
8077
8254
8068
8220
8094
8178
8147
8141
8183
8113
8183
8112
8170
8130
8123
8158
8081
8177
8050
8189
8047
8175
8073
8140
8107
8094
8166
8061
8195
8049
8194
8069
8192
8106
8146
8142
8122
8174
8104
8169
8106
8133
8120
8089
8172
8065
8215
8048
8241
8062
8225
8088
8186
8125
8122
8160
8091
8199
8094
8185
8103
8159
8134
8111
8156
8079
8179
8065
8171
8082
8127
8107
8083
8152
8044
8190
8019
8189
8032
8187
8069
8164
8110
8117
8147
8094
8173
8114
8167
8129
8121
8149
8076
8177
8055
8209
8059
8205
8092
8186
8140
8138
8179
8088
8197
8067
8203
8084
8207
8113
8151
8140
8117
8177
8103
8188
8099
8150
8120
8092
8159
8057
8198
8031
8206
8040
8212
8069
8179
8112
8129
8154
8097
8177
8086
8180
8107
8156
8141
8124
8170
8093
8188
8074
8196
8089
8174
8149
8146
8195
8088
8219
8066
8243
8062
8219
8090
8187
8130
8141
8157
8113
8174
8109
8162
8122
8119
8142
8079
8168
8047
8190
8029
8193
8051
8154
8093
8112
8152
8084
8187
8067
8196
8064
8168
8098
8139
8140
8114
8179
8108
8197
8114
8183
8151
8146
8182
8084
8212
8051
8236
8061
8233
8085
8198
8113
8153
8161
8111
8187
8103
8182
8106
8155
8140
8115
8171
8076
8181
8060
8194
8065
8156
8094
8109
8155
8075
8194
8049
8215
8055
8205
8074
8161
8102
8124
8140
8096
8163
8097
8151
8106
8112
8152
8115
8225
8086
8247
8066
8259
8099
8225
8121
8175
8184
8126
8213
8109
8223
8110
8214
8131
8164
8153
8107
8159
8072
8153
8062
8133
8081
8091
8130
8057
8182
8033
8204
8034
8218
8061
8206
8132
8180
8171
8128
8183
8098
8167
8103
8157
8128
8099
8158
8065
8187
8069
8208
8083
8195
8120
8164
8172
8103
8203
8076
8224
8060
8226
8095
8189
8119
8144
8155
8111
8170
8103
8165
8106
8123
8134
8075
8171
8039
8200
8026
8200
8047
8179
8074
8142
8119
8094
8168
8072
8171
8074
8166
8108
8150
8147
8112
8170
8080
8192
8089
8192
8128
8159
8164
8105
8213
8077
8245
8061
8242
8070
8212
8106
8173
8164
8131
8169
8106
8171
8110
8148
8132
8100
8153
8061
8177
8039
8190
8042
8169
8077
8144
8135
8094
8171
8061
8200
8057
8206
8080
8182
8115
8141
8156
8116
8176
8099
8164
8113
8161
8168
8111
8211
8082
8255
8064
8246
8067
8210
8088
8170
8151
8129
8185
8108
8198
8094
8175
8116
8139
8145
8099
8160
8060
8174
8066
8170
8089
8136
8136
8086
8179
8052
8211
8037
8208
8057
8195
8085
8161
8133
8125
8166
8102
8174
8105
8155
8131
8117
8185
8084
8213
8067
8243
8074
8222
8101
8178
8146
8123
8187
8095
8212
8079
8223
8102
8189
8123
8147
8159
8111
8181
8090
8160
8097
8133
8127
8085
8169
8047
8205
8031
8228
8044
8206
8074
8169
8117
8119
8167
8098
8189
8095
8175
8117
8147
8148
8104
8176
8080
8208
8081
8204
8110
8186
8168
8149
8208
8099
8232
8067
8238
8070
8203
8097
8176
8144
8142
8180
8114
8181
8107
8152
8126
8112
8163
8064
8192
8039
8209
8040
8199
8072
8165
8104
8115
8162
8084
8189
8077
8203
8094
8179
8124
8145
8165
8110
8179
8089
8184
8097
8159
8156
8147
8213
8105
8239
8063
8249
8055
8224
8082
8187
8128
8134
8164
8111
8190
8106
8180
8125
8148
8140
8089
8161
8055
8174
8043
8187
8066
8151
8104
8109
8156
8069
8193
8047
8203
8058
8197
8079
8157
8130
8128
8163
8107
8170
8101
8153
8122
8128
8175
8092
8224
8075
8253
8061
8233
8091
8201
8138
8153
8166
8104
8198
8081
8187
8094
8170
8119
8131
8149
8100
8173
8074
8182
8082
8152
8110
8110
8159
8053
8180
8022
8201
8030
8201
8061
8177
8103
8130
8140
8099
8160
8103
8194
8139
8187
8208
8144
8223
8092
8223
8064
8210
8083
8191
8123
8154
8178
8098
8213
8079
8233
8086
8229
8103
8177
8136
8136
8169
8105
8167
8097
8151
8110
8109
8134
8063
8187
8037
8220
8030
8201
8048
8184
8084
8129
8125
8096
8167
8084
8179
8097
8169
8120
8121
8141
8086
8169
8068
8193
8090
8180
8127
8152
8183
8104
8223
8082
8255
8075
8246
8085
8201
8109
8144
8136
8108
8164
8095
8155
8097
8122
8122
8081
8156
8042
8178
8034
8194
8051
8178
8085
8139
8148
8093
8180
8052
8173
8040
8166
8074
8152
8127
8121
8149
8084
8162
8087
8171
8120
8135
8173
8106
8215
8070
8249
8058
8249
8068
8205
8102
8172
8152
8122
8189
8110
8202
8106
8166
8121
8127
8153
8088
8173
8061
8184
8058
8164
8092
8117
8134
8077
8185
8048
8214
8048
8212
8069
8194
8113
8148
8144
8108
8165
8102
8168
8118
8152
8155
8118
8195
8083
8248
8079
8259
8095
8226
8118
8187
8168
8141
8209
8109
8244
8111
8232
8127
8195
8158
8137
8167
8095
8163
8076
8154
8109
8125
8130
8070
8178
8051
8226
8039
8221
8060
8201
8075
8158
8125
8115
8156
8101
8181
8103
8160
8130
8138
8157
8100
8208
8082
8240
8097
8214
8125
8184
8181
8140
8212
8091
8229
8066
8233
8083
8204
8118
8172
8158
8129
8172
8103
8161
8103
8134
8129
8090
8170
8056
8201
8038
8208
8041
8194
8080
8164
8137
8114
8177
8088
8198
8083
8186
8099
8164
8132
8124
8166
8090
8185
8094
8190
8120
8170
8166
8123
8213
8086
8255
8060
8255
8072
8229
8103
8197
8160
8147
8184
8108
8175
8100
8153
8112
8111
8136
8074
8167
8039
8177
8049
8183
8080
8157
8134
8107
8171
8062
8202
8061
8209
8073
8201
8117
8172
8157
8130
8177
8108
8172
8118
8174
8144
8121
8187
8079
8242
8060
8243
8059
8221
8087
8184
8126
8143
8177
8106
8206
8104
8226
8131
8175
8139
8120
8162
8090
8182
8079
8176
8084
8151
8126
8105
8182
8074
8217
8047
8224
8036
8195
8072
8167
8117
8126
8154
8100
8168
8105
8165
8127
8132
8177
8096
8214
8089
8243
8084
8228
8091
8181
8135
8137
8181
8098
8220
8090
8233
8088
8200
8117
8157
8139
8111
8165
8088
8165
8091
8131
8108
8089
8140
8053
8188
8029
8221
8034
8213
8066
8180
8099
8123
8153
8101
8180
8089
8174
8095
8154
8135
8119
8167
8094
8194
8085
8216
8105
8191
8156
8150
8197
8100
8236
8076
8243
8069
8223
8096
8192
8130
8145
8159
8115
8172
8102
8153
8108
8109
8136
8067
8179
8039
8204
8034
8201
8060
8168
8097
8119
8146
8082
8178
8056
8185
8077
8192
8109
8154
8144
8115
8176
8110
8215
8135
8205
8168
8151
8185
8077
8210
8056
8245
8054
8228
8075
8205
8120
8167
8170
8124
8200
8111
8181
8109
8149
8123
8103
8152
8069
8191
8073
8206
8086
8183
8109
8104
8136
8056
8172
8043
8212
8052
8212
8077
8159
8110
8135
8155
8109
8173
8098
8158
8131
8144
8178
8117
8230
8090
8257
8067
8237
8080
8207
8121
8158
8162
8110
8204
8088
8212
8099
8198
8118
8147
8146
8109
8164
8075
8164
8069
8156
8104
8111
8152
8078
8200
8047
8235
8048
8223
8063
8196
8106
8159
8145
8115
8183
8106
8176
8095
8144
8134
8124
8189
8088
8228
8087
8227
8094
8197
8123
8170
8183
8115
8217
8085
8244
8084
8249
8102
8198
8127
8148
8156
8110
8175
8100
8166
8120
8128
8143
8088
8185
8055
8204
8037
8213
8046
8188
8093
8156
8146
8115
8184
8089
8199
8090
8193
8120
8151
8150
8113
8187
8106
8214
8111
8202
8151
8174
8186
8115
8227
8084
8264
8077
8257
8082
8214
8110
8175
8164
8129
8185
8116
8179
8114
8146
8128
8103
8152
8061
8187
8045
8197
8053
8181
8080
8139
8129
8087
8173
8062
8194
8051
8202
8086
8183
8117
8140
8141
8102
8164
8092
8178
8121
8162
8163
8116
8215
8081
8249
8063
8250
8069
8216
8108
8180
8155
8132
8192
8104
8200
8103
8178
8120
8138
8131
8092
8168
8073
8174
8058
8172
8090
8141
8147
8102
8194
8072
8223
8048
8229
8065
8197
8085
8159
8139
8131
8183
8101
8170
8116
8157
8145
8121
8187
8084
8227
8077
8242
8074
8221
8105
8181
8150
8133
8197
8100
8223
8086
8230
8104
8184
8122
8140
8154
8102
8162
8076
8154
8085
8126
8132
8097
8183
8063
8207
8030
8213
8045
8201
8072
8165
8119
8123
8171
8103
8194
8104
8174
8113
8138
8147
8111
8195
8093
8232
8092
8215
8120
8178
8162
8137
8207
8090
8226
8071
8257
8087
8226
8122
8190
8152
8141
8171
8095
8156
8091
8138
8111
8096
8150
8063
8197
8038
8209
8045
8203
8073
8165
8117
8117
8167
8084
8194
8079
8189
8093
8171
8126
8142
8163
8110
8188
8104
8199
8118
8183
8172
8143
8198
8084
8228
8062
8251
8061
8208
8079
8195
8128
8153
8177
8117
8195
8113
8180
8118
8133
8129
8088
8169
8062
8184
8052
8185
8069
8154
8107
8104
8168
8069
8201
8062
8231
8072
8203
8099
8176
8143
8126
8163
8099
8166
8113
8160
8131
8138
8201
8114
8250
8084
8262
8071
8234
8090
8200
8139
8157
8182
8116
8201
8094
8207
8102
8171
8124
8132
8157
8096
8181
8070
8162
8075
8130
8105
8098
8157
8059
8199
8039
8209
8037
8210
8069
8189
8118
8155
8172
8124
8174
8098
8157
8114
8139
8151
8097
8190
8084
8241
8090
8237
8103
8202
8142
8150
8172
8090
8217
8083
8243
8091
8223
8122
8187
8143
8129
8152
8090
8155
8084
8142
8104
8105
8162
8069
8203
8055
8228
8047
8219
8067
8190
8105
8151
8172
8122
8200
8107
8209
8107
8174
8129
8140
8164
8109
8192
8094
8213
8113
8201
8153
8159
8194
8095
8217
8069
8252
8073
8250
8100
8211
8127
8163
8171
8120
8180
8116
8176
8109
8130
8140
8089
8167
8053
8188
8044
8203
8061
8182
8102
8143
8154
8097
8197
8070
8215
8078
8204
8097
8157
8132
8122
8153
8097
8182
8103
8191
8146
8158
8189
8114
8223
8070
8245
8063
8250
8082
8214
8117
8172
8171
8134
8196
8108
8199
8101
8164
8120
8118
8139
8086
8170
8060
8180
8067
8160
8091
8120
8160
8090
8196
8064
8225
8056
8232
8081
8195
8106
8137
8136
8111
8157
8099
8163
8117
8142
8152
8118
8207
8086
8255
8073
8249
8082
8209
8105
8151
8147
8117
8203
8086
8206
8078
8185
8097
8150
8129
8116
8153
8079
8156
8070
8142
8092
8114
8133
8078
8192
8055
8243
8060
8244
8071
8209
8103
8172
8147
8125
8185
8098
8181
8107
8168
8142
8144
8180
8098
8211
8088
8222
8095
8210
8123
8176
8177
8121
8208
8084
8247
8075
8241
8089
8206
8123
8177
8160
8131
8193
8113
8163
8111
8144
8145
8104
8172
8050
8202
8043
8218
8054
8204
8099
8171
8148
8122
8184
8092
8208
8089
8208
8107
8163
8137
8125
8165
8101
8202
8099
8195
8129
8169
8170
8123
8211
8077
8246
8057
8251
8077
8230
8111
8189
8156
8130
8173
8094
8173
8093
8141
8108
8115
8142
8068
8167
8048
8196
8049
8183
8085
8152
8130
8101
8180
8083
8224
8084
8236
8087
8191
8094
8135
8130
8101
8156
8085
8161
8106
8149
8163
8135
8215
8088
8241
8059
8241
8053
8217
8085
8186
8145
8142
8183
8111
8209
8107
8222
8124
8164
8135
8117
8157
8079
8168
8057
8168
8079
8126
8119
8096
8178
8059
8215
8048
8233
8058
8218
8092
8183
8130
8137
8160
8104
8167
8105
8166
8141
8140
8183
8113
8234
8095
8252
8080
8221
8091
8182
8147
8144
8192
8100
8220
8075
8234
8087
8199
8111
8155
8148
8104
8166
8094
8166
8098
8144
8125
8105
8171
8075
8210
8045
8233
8044
8222
8073
8193
8117
8144
8165
8101
8188
8096
8187
8109
8158
8137
8125
8175
8094
8208
8094
8214
8111
8191
8156
8147
8201
8100
8236
8081
8265
8089
8240
8107
8197
8143
8142
8157
8099
8158
8083
8143
8108
8114
8138
8068
8171
8042
8206
8047
8206
8071
8175
8114
8145
8166
8092
8195
8067
8198
8078
8182
8098
8139
8141
8116
8178
8093
8193
8109
8181
8140
8136
8189
8095
8225
8068
8249
8063
8237
8092
8205
8118
8164
8171
8128
8202
8110
8187
8112
8155
8127
8106
8153
8070
8183
8059
8198
8086
8181
8115
8133
8164
8084
8200
8060
8219
8068
8218
8098
8197
8130
8143
8158
8115
8185
8114
8170
8131
8143
8186
8119
8224
8083
8250
8079
8254
8096
8225
8143
8184
8178
8118
8194
8083
8201
8090
8178
8108
8139
8134
8104
8161
8073
8169
8082
8161
8111
8122
8162
8082
8207
8053
8218
8038
8218
8067
8193
8095
8159
8144
8119
8185
8101
8176
8109
8156
8142
8118
8189
8098
8231
8084
8231
8095
8211
8133
8159
8168
8107
8211
8079
8238
8083
8233
8101
8196
8131
8142
8156
8104
8167
8094
8154
8098
8115
8138
8086
8190
8059
8234
8055
8241
8069
8209
8100
8158
8142
8107
8178
8086
8204
8099
8176
8107
8142
8147
8117
8196
8095
8207
8103
8207
8147
8170
8180
8108
8214
8074
8254
8075
8263
8090
8222
8116
8173
8141
8116
8165
8098
8160
8096
8138
8118
8091
8150
8066
8187
8051
8212
8061
8183
8087
8149
8147
8107
8186
8067
8207
8068
8224
8094
8190
8119
8130
8145
8104
8175
8105
8191
8140
8176
8180
8127
8217
8093
8253
8072
8264
8079
8233
8113
8191
8157
8153
8194
8115
8203
8105
8179
8105
8122
8122
8086
8156
8059
8170
8059
8167
8084
8121
8122
8089
8185
8058
8211
8041
8211
8064
8205
8103
8169
8135
8124
8164
8109
8182
8128
8179
8158
8142
8209
8114
8254
8092
8260
8095
8240
8120
8204
8182
8161
8218
8103
8224
8091
8227
8101
8194
8117
8131
8145
8092
8151
8072
8148
8083
8114
8109
8071
8154
8036
8190
8025
8208
8036
8198
8074
8166
8117
8123
8170
8098
8189
8093
8170
8123
8157
8169
8136
8229
8114
8248
8105
8230
8132
8209
8188
8164
8225
8119
8267
8088
8249
8074
8213
8111
8181
8144
8131
8157
8092
8153
8086
8126
8104
8085
8131
8054
8171
8034
8207
8044
8199
8065
8160
8108
8115
8163
8084
8203
8089
8204
8089
8189
8149
8180
8209
8146
8236
8126
8216
8146
8209
8185
8159
8226
8102
8252
8074
8267
8080
8254
8109
8209
8155
8163
8177
8120
8196
8101
8161
8102
8118
8119
8074
8155
8052
8182
8050
8184
8082
8163
8117
8111
8168
8076
8202
8049
8205
8054
8195
8086
8156
8133
8133
8174
8119
8183
8127
8184
8150
8146
8209
8114
8247
8080
8252
8070
8238
8091
8204
8145
8166
8185
8116
8205
8089
8202
8093
8163
8117
8119
8137
8079
8152
8059
8151
8066
8126
8093
8089
8152
8058
8198
8039
8227
8040
8214
8069
8187
8112
8138
8151
8111
8167
8102
8172
8132
8164
8189
8136
8242
8113
8261
8098
8242
8113
8208
8151
8169
8203
8132
8236
8096
8242
8082
8208
8093
8155
8121
8112
8149
8078
8143
8078
8134
8098
8093
8138
8060
8188
8041
8206
8033
8202
8054
8181
8102
8148
8154
8100
8182
8086
8198
8098
8167
8132
8156
8196
8128
8232
8114
8225
8114
8202
8157
8160
8197
8127
8236
8082
8266
8074
8249
8096
8211
8124
8165
8172
8116
8172
8100
8159
8093
8118
8125
8066
8146
8033
8174
8037
8201
8056
8179
8093
8146
8164
8108
8206
8077
8211
8077
8188
8097
8157
8136
8142
8191
8125
8227
8136
8212
8167
8176
8206
8122
8240
8092
8271
8079
8269
8104
8237
8133
8191
8178
8143
8199
8106
8180
8089
8145
8106
8108
8137
8066
8158
8046
8165
8064
8166
8097
8123
8151
8086
8190
8053
8215
8054
8216
8069
8198
8111
8146
8143
8125
8183
8126
8202
8147
8190
8193
8149
8230
8104
8256
8081
8251
8093
8224
8127
8184
8174
8140
8214
8101
8215
8086
8203
8097
8151
8119
8114
8154
8081
8152
8062
8125
8077
8105
8129
8080
8187
8052
8209
8026
8206
8047
8188
8084
8156
8134
8121
8178
8098
8172
8108
8175
8141
8153
8204
8130
8243
8109
8250
8106
8221
8145
8198
8187
8148
8230
8100
8254
8090
8249
8093
8206
8120
8153
8142
8104
8146
8080
8137
8082
8108
8113
8092
8178
8054
8204
8041
8219
8046
8187
8066
8146
8116
8103
8165
8085
8206
8089
8184
8104
8160
8141
8135
8195
8130
8234
8120
8216
8138
8186
8186
8151
8228
8096
8268
8084
8269
8085
8236
8113
8186
8150
8123
8168
8089
8161
8086
8137
8098
8098
8134
8062
8164
8037
8173
8038
8168
8063
8144
8119
8101
8168
8077
8214
8061
8223
8080
8197
8111
8152
8150
8137
8200
8125
8213
8141
8189
8178
8142
8218
8106
8258
8089
8276
8088
8250
8110
8195
8136
8136
8176
8093
8192
8089
8174
8085
8140
8116
8106
8146
8067
8158
8066
8192
8111
8172
8147
8105
8168
8052
8204
8040
8225
8044
8190
8068
8168
8119
8122
8154
8111
8183
8126
8172
8142
8156
8198
8125
8243
8103
8261
8100
8244
8114
8199
8151
8149
8190
8104
8236
8103
8243
8088
8202
8112
8154
8141
8103
8151
8073
8145
8076
8124
8103
8093
8162
8063
8197
8038
8231
8040
8210
8072
8177
8111
8146
8164
8107
8191
8093
8181
8115
8176
8153
8147
8212
8128
8245
8116
8233
8121
8204
8166
8160
8201
8103
8239
8080
8255
8068
8229
8102
8199
8141
8145
8155
8098
8151
8080
8132
8089
8088
8125
8064
8165
8041
8191
8044
8204
8066
8177
8109
8137
8160
8094
8200
8073
8201
8080
8190
8114
8162
8160
8134
8210
8127
8225
8145
8208
8175
8164
8208
8113
8244
8092
8272
8081
8254
8090
8214
8132
8161
8166
8113
8182
8089
8171
8087
8128
8111
8085
8136
8059
8168
8049
8180
8072
8172
8112
8122
8163
8083
8194
8048
8212
8053
8213
8077
8176
8115
8143
8160
8127
8192
8132
8205
8169
8178
8197
8125
8232
8093
8268
8084
8265
8103
8232
8145
8187
8186
8132
8219
8104
8219
8084
8174
8099
8127
8117
8080
8143
8067
8162
8069
8145
8098
8115
8151
8079
8192
8050
8220
8033
8216
8062
8194
8108
8160
8142
8115
8169
8104
8182
8125
8196
8182
8173
8227
8128
8252
8101
8251
8105
8223
8148
8183
8199
8143
8223
8099
8255
8089
8242
8098
8193
8122
8134
8140
8091
8148
8068
8145
8100
8120
8134
8076
8180
8046
8207
8033
8211
8051
8193
8088
8155
8148
8117
8184
8086
8201
8088
8185
8130
8168
8168
8136
8214
8119
8246
8127
8218
8158
8185
8196
8141
8233
8102
8262
8074
8251
8083
8215
8104
8168
8136
8117
8160
8088
8157
8092
8130
8114
8099
8148
8062
8177
8043
8194
8042
8173
8079
8144
8143
8104
8181
8074
8216
8073
8227
8092
8191
8132
8162
8187
8137
8225
8135
8221
8149
8181
8183
8128
8218
8091
8269
8082
8277
8092
8237
8108
8190
8160
8150
8194
8106
8196
8089
8159
8091
8120
8121
8078
8141
8056
8165
8058
8171
8089
8144
8142
8097
8184
8059
8212
8052
8227
8063
8200
8093
8167
8123
8116
8166
8116
8186
8132
8184
8178
8154
8217
8116
8251
8084
8254
8092
8235
8116
8202
8173
8152
8201
8096
8213
8070
8190
8076
8152
8094
8109
8114
8069
8131
8047
8132
8074
8120
8126
8098
8192
8083
8243
8058
8243
8051
8210
8077
8182
8135
8150
8181
8111
8203
8109
8187
8128
8160
8167
8139
8238
8121
8249
8110
8225
8126
8198
8177
8160
8226
8110
8247
8087
8249
8092
8227
8102
8167
8126
8117
8150
8091
8147
8078
8127
8102
8088
8142
8068
8195
8042
8207
8055
8208
8068
8176
8117
8135
8170
8094
8190
8074
8202
8091
8191
8136
8159
8193
8141
8228
8131
8231
8144
8200
8183
8159
8213
8106
8255
8082
8269
8080
8238
8101
8206
8135
8155
8173
8107
8165
8080
8150
8091
8114
8121
8075
8150
8051
8171
8044
8184
8072
8162
8113
8130
8179
8084
8209
8062
8216
8052
8176
8083
8157
8136
8140
8172
8123
8203
8132
8198
8170
8169
8208
8116
8247
8084
8266
8077
8263
8102
8210
8146
8161
8179
8101
8194
8093
8207
8094
8164
8115
8118
8132
8077
8151
8056
8153
8073
8150
8117
8111
8173
8079
8212
8062
8253
8070
8229
8093
8197
8114
8136
8151
8117
8197
8119
8199
8142
8164
8188
8134
8219
8108
8251
8091
8242
8109
8211
8159
8169
8195
8122
8233
8098
8245
8083
8211
8092
8147
8112
8103
8138
8077
8142
8074
8133
8099
8107
8153
8068
8192
8045
8226
8031
8208
8060
8189
8114
8162
8169
8109
8183
8090
8204
8119
8199
8154
8165
8204
8132
8238
8113
8226
8125
8209
8162
8171
8194
8117
8238
8084
8253
8068
8245
8091
8198
8124
8166
8154
8102
8150
8076
8141
8093
8117
8125
8081
8165
8056
8204
8048
8206
8066
8184
8104
8151
8158
8099
8205
8077
8214
8080
8207
8108
8183
8152
8143
8202
8135
8234
8136
8196
8142
8163
8191
8117
8237
8084
8271
8087
8264
8091
8223
8120
8176
8159
8117
8176
8080
8163
8080
8130
8095
8096
8122
8063
8157
8053
8185
8068
8159
8088
8117
8149
8081
8194
8061
8216
8052
8230
8074
8194
8114
8170
8172
8140
8203
8131
8203
8142
8181
8188
8130
8227
8102
8266
8090
8255
8105
8238
8141
8182
8177
8129
8206
8091
8222
8081
8185
8085
8137
8116
8103
8135
8077
8154
8075
8147
8098
8129
8156
8091
8201
8064
8236
8046
8234
8057
8203
8090
8158
8135
8119
8188
8115
8199
8124
8200
8160
8174
8219
8133
8246
8104
8248
8110
8218
8138
8176
8179
8134
8228
8100
8262
8083
8245
8094
8195
8110
8137
8126
8097
8141
8074
8139
8095
8123
8129
8093
8180
8059
8205
8038
8213
8055
8205
8089
8165
8146
8122
8184
8085
8199
8091
8208
8127
8186
8163
8161
8207
8137
8238
8130
8218
8143
8190
8201
8153
8244
8101
8266
8076
8256
8073
8219
8108
8181
8153
8122
8173
8095
8157
8080
8138
8105
8103
8142
8068
8179
8061
8199
8058
8185
8094
8161
8148
8114
8203
8089
8225
8071
8229
8075
8194
8114
8158
8162
8150
8226
8149
8241
8187
8231
8227
8179
8236
8090
8221
8053
8245
8072
8225
8109
8190
8154
8145
8182
8097
8194
8078
8166
8083
8118
8103
8090
8141
8058
8160
8057
8164
8087
8124
8117
8083
8175
8059
8216
8052
8234
8052
8204
8087
8166
8124
8134
8187
8126
8218
8138
8201
8163
8162
8208
8126
8242
8092
8264
8093
8232
8128
8206
8165
8156
8212
8106
8226
8083
8229
8082
8187
8105
8129
8120
8084
8136
8070
8138
8082
8123
8111
8092
8169
8067
8212
8046
8234
8048
8210
8079
8183
8121
8130
8171
8102
8201
8107
8217
8135
8195
8190
8160
8218
8122
8243
8116
8227
8128
8197
8179
8164
8219
8102
8259
8087
8264
8084
8223
8087
8173
8108
8118
8138
8082
8142
8078
8130
8101
8108
8145
8064
8172
8039
8209
8051
8202
8071
8171
8116
8135
8178
8095
8211
8082
8206
8082
8196
8122
8158
8162
8133
8198
8109
8199
8124
8188
8168
8154
8198
8096
8232
8066
8261
8072
8262
8106
8210
8134
8163
8165
8102
8164
8080
8155
8085
8120
8102
8081
8142
8060
8164
8053
8174
8065
8158
8112
8114
8164
8079
8200
8050
8210
8047
8204
8076
8169
8130
8141
8172
8132
8219
8145
8214
8177
8175
8205
8123
8250
8095
8265
8089
8260
8106
8212
8144
8171
8186
8111
8207
8081
8204
8077
8163
8090
8120
8125
8087
8156
8078
8167
8078
8139
8112
8104
8163
8071
8202
8038
8233
8046
8224
8077
8193
8106
8158
8167
8124
8201
8118
8219
8142
8192
8185
8146
8212
8109
8247
8093
8233
8102
8207
8155
8170
8203
8120
8226
8090
8265
8105
8249
8104
8175
8109
8105
8121
8083
8147
8085
8141
8099
8108
8145
8076
8185
8040
8225
8043
8212
8066
8191
8100
8145
8153
8109
8184
8095
8228
8116
8211
8156
8204
8206
8153
8248
8137
8242
8128
8209
8162
8167
8204
8133
8268
8105
8279
8081
8262
8092
8209
8113
8144
8133
8098
8150
8081
8155
8092
8126
8117
8097
8169
8078
8224
8076
8220
8087
8193
8110
8144
8153
8088
8193
8071
8217
8075
8218
8103
8197
8145
8174
8201
8146
8234
8142
8211
8170
8180
8204
8139
8247
8105
8276
8083
8264
8088
8221
8113
8173
8165
8123
8191
8085
8173
8074
8146
8091
8121
8135
8089
8161
8077
8189
8074
8171
8106
8127
8151
8086
8189
8060
8238
8050
8221
8068
8194
8115
8174
8170
8136
8201
8122
8201
8139
8192
8187
8148
8222
8110
8254
8093
8258
8102
8227
8122
8176
8181
8128
8208
8089
8217
8068
8203
8076
8153
8095
8097
8125
8072
8150
8068
8147
8092
8110
8127
8084
8187
8052
8222
8058
8252
8072
8218
8112
8172
8132
8116
8169
8093
8191
8105
8198
8146
8170
8196
8143
8234
8107
8241
8113
8228
8156
8194
8196
8141
8232
8094
8251
8069
8244
8075
8200
8098
8147
8124
8101
8144
8073
8135
8074
8113
8115
8092
8157
8059
8202
8043
8213
8055
8202
8096
8171
8150
8114
8185
8082
8204
8087
8223
8109
8195
8154
8179
8209
8139
8238
8136
8216
8142
8181
8181
8131
8232
8097
8262
8070
8263
8076
8218
8095
8181
8129
8114
8150
8074
8147
8062
8132
8081
8093
8114
8059
8149
8046
8172
8057
8186
8098
8166
8166
8142
8227
8091
8235
8073
8226
8061
8194
8110
8170
8158
8155
8213
8140
8218
8152
8194
8189
8150
8222
8110
8255
8082
8263
8087
8229
8107
8191
8148
8138
8184
8080
8189
8068
8173
8064
8130
8090
8101
8130
8072
8160
8076
8168
8097
8136
8144
8108
8196
8069
8226
8059
8232
8051
8196
8062
8150
8111
8120
8170
8114
8213
8138
8218
8165
8193
8217
8144
8250
8115
8252
8102
8231
8125
8198
8178
8162
8211
8098
8232
8080
8236
8070
8186
8077
8127
8112
8088
8134
8070
8142
8082
8127
8121
8104
8179
8072
8214
8059
8243
8061
8214
8085
8186
8125
8143
8175
8095
8208
8104
8223
8132
8212
8172
8189
8222
8141
8245
8132
8222
8136
8202
8186
8168
8228
8109
8241
8069
8251
8064
8215
8080
8174
8104
8118
8137
8086
8143
8076
8134
8095
8113
8142
8084
8191
8061
8213
8064
8202
8089
8177
8138
8141
8186
8092
8213
8068
8231
8086
8214
8118
8194
8182
8166
8237
8151
8237
8149
8211
8179
8166
8224
8126
8263
8095
8274
8087
8266
8104
8209
8128
8149
8166
8102
8176
8070
8158
8074
8127
8096
8097
8144
8083
8186
8081
8195
8092
8159
8110
8097
8152
8055
8194
8045
8237
8064
8221
8097
8195
8146
8166
8194
8143
8212
8137
8205
8160
8178
8200
8126
8225
8097
8259
8096
8243
8104
8212
8153
8162
8193
8123
8232
8084
8203
8065
8173
8086
8134
8117
8094
8146
8087
8166
8098
8165
8122
8110
8163
8066
8206
8050
8237
8051
8230
8073
8187
8106
8132
8142
8102
8188
8102
8220
8131
8201
8180
8148
8204
8121
8239
8106
8229
8119
8207
8161
8158
8192
8100
8223
8067
8245
8068
8217
8090
8192
8131
8143
8149
8094
8142
8070
8130
8100
8108
8140
8077
8190
8053
8210
8049
8202
8060
8180
8108
8148
8162
8097
8197
8084
8217
8096
8219
8140
8197
8189
8153
8232
8137
8234
8132
8203
8169
8176
8205
8125
8251
8092
8277
8084
8262
8082
8206
8110
8137
8135
8092
8147
8069
8151
8083
8133
8114
8098
8151
8077
8181
8059
8197
8069
8173
8110
8136
8162
8095
8207
8071
8242
8068
8234
8100
8206
8144
8187
8191
8151
8229
8142
8208
8154
8180
8206
8139
8252
8114
8279
8096
8271
8099
8233
8142
8178
8166
8111
8179
8065
8168
8063
8155
8084
8133
8118
8089
8141
8065
8160
8072
8160
8106
8126
8164
8088
8209
8060
8246
8062
8240
8070
8199
8098
8166
8163
8127
8197
8133
8231
8155
8212
8187
8163
8221
8119
8249
8099
8258
8109
8225
8146
8187
8187
8127
8215
8088
8225
8065
8205
8069
8150
8090
8112
8122
8082
8144
8074
8146
8101
8125
8141
8084
8189
8055
8228
8043
8220
8061
8205
8096
8162
8146
8115
8187
8113
8220
8127
8236
8161
8199
8188
8148
8212
8110
8216
8113
8214
8153
8190
8197
8143
8238
8103
8263
8072
8251
8077
8201
8093
8146
8118
8100
8145
8081
8146
8084
8126
8122
8104
8157
8068
8202
8049
8208
8059
8192
8098
8162
8154
8115
8192
8083
8220
8082
8242
8101
8209
8148
8178
8195
8152
8235
8142
8219
8152
8190
8194
8137
8228
8100
8257
8075
8259
8072
8224
8103
8175
8132
8119
8166
8086
8169
8084
8171
8117
8132
8128
8078
8142
8049
8165
8065
8172
8089
8145
8149
8108
8202
8077
8228
8059
8230
8066
8208
8107
8166
8153
8154
8208
8148
8231
8152
8204
8181
8151
8207
8107
8255
8099
8264
8091
8228
8116
8194
8158
8138
8190
8080
8197
8052
8174
8059
8146
8093
8108
8127
8077
8149
8076
8148
8085
8124
8121
8093
8186
8061
8217
8046
8243
8057
8210
8085
8174
8150
8161
8195
8134
8217
8126
8207
8140
8167
8183
8128
8211
8116
8250
8119
8243
8159
8208
8183
8163
8216
8096
8230
8059
8230
8061
8192
8087
8143
8100
8099
8133
8070
8133
8069
8122
8110
8096
8155
8071
8198
8051
8218
8055
8209
8080
8175
8147
8159
8201
8112
8221
8108
8258
8143
8238
8190
8198
8217
8151
8239
8145
8230
8142
8199
8188
8156
8227
8102
8257
8066
8255
8064
8226
8087
8183
8121
8123
8140
8077
8144
8068
8133
8083
8120
8134
8099
8176
8066
8200
8066
8191
8083
8172
8140
8134
8184
8082
8214
8069
8244
8082
8220
8116
8200
8180
8166
8218
8148
8236
8159
8207
8183
8165
8225
8136
8264
8096
8271
8091
8241
8094
8196
8133
8131
8159
8079
8165
8047
8152
8057
8126
8083
8097
8127
8082
8167
8072
8165
8079
8147
8121
8110
8178
8080
8219
8064
8236
8051
8212
8086
8200
8137
8171
8191
8147
8229
8152
8230
8164
8187
8198
8143
8243
8115
8268
8117
8258
8123
8207
8149
8154
8183
8089
8201
8055
8200
8054
8160
8056
8128
8106
8112
8160
8102
8169
8102
8152
8122
8115
8167
8073
8196
8035
8226
8045
8225
8079
8198
8119
8159
8179
8125
8204
8119
8240
8142
8235
8169
8180
8208
8134
8237
8125
8237
8136
8215
8176
8166
8210
8109
8232
8059
8234
8048
8212
8066
8171
8097
8113
8121
8082
8136
8069
8140
8097
8122
8141
8094
8183
8058
8216
8045
8207
8072
8186
8124
8159
8181
8102
8209
8092
8249
8100
8246
8151
8216
8198
8181
8234
8149
8240
8148
8214
8168
8173
8204
8114
8233
8081
8258
8064
8244
8081
8204
8109
8145
8138
8101
8175
8087
8166
8075
8132
8089
8090
8133
8066
8177
8067
8189
8072
8174
8126
8161
8190
8114
8222
8062
8220
8052
8216
8093
8206
8140
8184
8205
8164
8239
8153
8217
8167
8191
8204
8141
8227
8104
8269
8089
8250
8084
8199
8114
8164
8167
8103
8186
8071
8194
8058
8159
8064
8128
8103
8090
8137
8076
8159
8079
8146
8108
8115
8153
8078
8192
8054
8220
8040
8228
8070
8206
8115
8183
8173
8143
8212
8127
8228
8146
8218
8180
8181
8213
8132
8249
8106
8251
8124
8216
8144
8163
8170
8098
8194
8066
8211
8042
8183
8057
8151
8077
8109
8109
8087
8140
8076
8140
8093
8110
8126
8091
8184
8059
8212
8055
8222
8073
8202
8095
8160
8148
8123
8207
8113
8244
8135
8249
8159
8214
8187
8159
8214
8144
8246
8138
8220
8166
8194
8208
8130
8231
8081
8247
8048
8236
8050
8195
8087
8158
8114
8085
8126
8064
8138
8078
8133
8110
8109
8151
8073
8180
8057
8200
8073
8202
8104
8172
8163
8112
8201
8084
8248
8092
8256
8106
8231
8161
8215
8210
8165
8231
8144
8214
8151
8200
8202
8162
8231
8103
8261
8077
8259
8083
8220
8102
8174
8124
8103
8161
8070
8158
8058
8148
8072
8127
8113
8099
8157
8086
8175
8084
8184
8110
8157
8162
8111
8202
8078
8246
8066
8258
8084
8242
8128
8217
8187
8171
8207
8142
8234
8145
8198
8161
8148
8204
8121
8251
8102
8264
8099
8235
8120
8191
8158
8136
8179
8058
8184
8046
8179
8050
8149
8078
8118
8122
8086
8148
8076
8152
8095
8134
8137
8100
8190
8072
8226
8060
8246
8060
8213
8091
8189
8154
8163
8194
8135
8250
8150
8258
8168
8217
8198
8158
8217
8129
8251
8127
8229
8131
8186
8163
8125
8192
8070
8214
8040
8218
8043
8180
8062
8144
8118
8121
8146
8084
8141
8069
8121
8097
8104
8150
8070
8198
8061
8228
8067
8224
8099
8201
8157
8141
8181
8091
8215
8085
8242
8111
8228
8155
8191
8194
8155
8238
8138
8226
8139
8198
8177
8150
8217
8110
8240
8073
8257
8069
8236
8078
8169
8102
8104
8127
8071
8150
8058
8136
8062
8102
8104
8082
8148
8061
8174
8060
8191
8086
8166
8137
8132
8187
8091
8224
8064
8250
8092
8247
8126
8223
8197
8207
8229
8167
8244
8152
8198
8173
8178
8215
8127
8260
8102
8271
8090
8229
8090
8190
8113
8117
8168
8094
8199
8084
8207
8078
8157
8082
8111
8121
8075
8138
8069
8156
8083
8154
8127
8113
8176
8074
8225
8057
8245
8047
8222
8088
8210
8136
8186
8204
8169
8260
8158
8248
8166
8206
8204
8163
8242
8134
8267
8119
8243
8121
8211
8153
8154
8183
8088
8213
8057
8209
8046
8173
8061
8137
8095
8104
8132
8085
8150
8088
8144
8107
8114
8151
8087
8209
8075
8259
8079
8238
8084
8204
8117
8152
8169
8113
8214
8119
8241
8125
8240
8166
8196
8206
8154
8241
8133
8249
8167
8231
8186
8157
8207
8094
8212
8043
8226
8028
8197
8061
8187
8103
8126
8113
8064
8105
8044
8134
8084
8125
8118
8080
8144
8056
8186
8053
8205
8079
8191
8137
8155
8168
8091
8201
8079
8245
8094
8249
8131
8226
8194
8200
8216
8156
8239
8146
8216
8174
8178
8216
8143
8245
8093
8261
8064
8217
8068
8186
8101
8144
8143
8084
8148
8055
8150
8051
8131
8088
8113
8131
8085
8156
8070
8169
8071
8165
8118
8142
8179
8102
8223
8064
8235
8051
8224
8076
8205
8137
8195
8202
8157
8220
8149
8237
8162
8198
8193
8147
8243
8122
8266
8102
8264
8098
8209
8115
8166
8165
8105
8196
8068
8195
8043
8151
8048
8119
8089
8101
8139
8088
8155
8093
8169
8121
8135
8163
8096
8212
8068
8240
8056
8251
8096
8239
8153
8211
8203
8178
8239
8141
8248
8134
8206
8138
8151
8184
8133
8236
8116
8251
8134
8231
8163
8184
8193
8113
8212
8067
8221
8047
8202
8049
8158
8061
8105
8107
8095
8159
8113
8196
8127
8161
8139
8102
8160
8068
8237
8078
8261
8082
8200
8087
8145
8140
8111
8211
8112
8260
8112
8241
8132
8205
8161
8157
8204
8147
8234
8134
8219
8161
8182
8189
8122
8226
8080
8251
8050
8235
8061
8204
8088
8157
8126
8108
8141
8060
8132
8060
8135
8100
8116
8138
8089
8177
8066
8187
8064
8174
8105
8167
8167
8115
8200
8080
8252
8087
8256
8112
8265
8176
8220
8203
8170
8216
8142
8208
8143
8194
8190
8163
8236
8115
8257
8082
8253
8074
8218
8093
8178
8140
8105
8166
8067
8175
8048
8161
8071
8136
8107
8109
8141
8082
8166
8089
8179
8101
8150
8157
8114
8209
8079
8233
8061
8251
8084
8240
8118
8207
8177
8178
8219
8146
8236
8148
8230
8173
8196
8230
8157
8249
8102
8211
8073
8201
8094
8163
8150
8121
8191
8070
8190
8028
8159
8023
8176
8091
8141
8128
8091
8127
8082
8162
8089
8120
8108
8087
8150
8056
8204
8043
8229
8045
8212
8093
8194
8160
8158
8194
8121
8226
8118
8236
8133
8201
8169
8170
8216
8138
8241
8127
8224
8118
8170
8161
8124
8206
8080
8224
8042
8233
8047
8201
8069
8145
8092
8091
8110
8063
8132
8069
8135
8107
8118
8154
8093
8198
8067
8221
8078
8207
8084
8170
8132
8135
8187
8103
8237
8102
8278
8129
8262
8166
8211
8186
8151
8200
8120
8217
8152
8208
8193
8175
8220
8121
8261
8083
8258
8067
8214
8058
8170
8104
8125
8161
8097
8191
8082
8162
8078
8125
8100
8094
8135
8074
8170
8067
8193
8099
8177
8137
8132
8192
8086
8225
8083
8278
8113
8275
8143
8244
8200
8212
8237
8172
8239
8153
8205
8150
8159
8195
8129
8228
8098
8253
8084
8238
8095
8197
8133
8140
8167
8077
8176
8045
8182
8057
8157
8077
8125
8123
8111
8179
8107
8170
8086
8138
8111
8109
8172
8085
8228
8067
8261
8064
8232
8079
8205
8130
8188
8201
8165
8238
8144
8234
8141
8198
8168
8150
8210
8134
8253
8117
8228
8109
8196
8144
8148
8187
8091
8222
8069
8235
8050
8178
8052
8141
8084
8117
8137
8089
8153
8081
8141
8097
8118
8146
8094
8199
8070
8233
8059
8215
8067
8188
8111
8163
8185
8127
8232
8122
8253
8127
8245
8143
8190
8183
8142
8205
8129
8226
8140
8222
8182
8177
8206
8124
8244
8075
8245
8050
8219
8061
8192
8084
8126
8118
8090
8143
8071
8166
8089
8148
8127
8112
8165
8093
8223
8089
8226
8093
8193
8120
8152
8163
8093
8203
8082
8230
8086
8258
8122
8229
8156
8190
8199
8155
8241
8156
8231
8186
8198
8193
8118
8218
8088
8247
8058
8229
8078
8199
8098
8143
8124
8091
8140
8040
8152
8051
8161
8098
8143
8144
8103
8156
8073
8167
8084
8175
8113
8144
8164
8091
8199
8051
8221
8046
8243
8081
8225
8135
8193
8180
8154
8214
8141
8225
8147
8202
8181
8157
8212
8120
8249
8093
8228
8091
8208
8123
8169
8164
8108
8191
8064
8194
8034
8167
8054
8161
8101
8133
8135
8089
8151
8093
8156
8114
8141
8159
8099
8190
8067
8243
8069
8258
8086
8236
8123
8191
8170
8159
8225
8144
8260
8138
8240
8164
8207
8204
8161
8237
8134
8249
8124
8209
8132
8169
8180
8138
8232
8100
8253
8060
8219
8024
8135
8032
8105
8101
8088
8128
8070
8138
8075
8132
8112
8104
8176
8076
8205
8067
8228
8081
8206
8090
8166
8165
8149
8227
8130
8268
8108
8248
8116
8212
8157
8195
8207
8154
8239
8133
8213
8140
8180
8174
8128
8213
8088
8248
8067
8238
8042
8203
8071
8148
8096
8103
8137
8074
8163
8078
8164
8103
8142
8150
8121
8198
8095
8200
8071
8189
8102
8179
8169
8124
8193
8071
8223
8076
8256
8096
8232
8124
8203
8177
8181
8219
8162
8239
8165
8239
8198
8173
8201
8100
8245
8100
8262
8078
8207
8080
8156
8111
8109
8160
8072
8183
8050
8168
8048
8134
8083
8115
8138
8095
8167
8087
8163
8098
8154
8134
8109
8193
8069
8211
8050
8246
8074
8259
8109
8221
8165
8188
8213
8146
8243
8145
8252
8173
8215
8209
8146
8205
8081
8208
8082
8212
8110
8187
8157
8138
8182
8067
8187
8034
8174
8031
8159
8059
8141
8108
8107
8138
8084
8153
8092
8143
8117
8113
8171
8090
8220
8061
8245
8055
8213
8077
8195
8155
8170
8206
8135
8253
8130
8246
8123
8214
8153
8183
8217
8170
8260
8147
8245
8134
8185
8149
8124
8186
8090
8219
8044
8227
8032
8200
8053
8168
8094
8114
8126
8073
8136
8066
8149
8092
8135
8141
8099
8172
8077
8224
8075
8213
8083
8171
8117
8137
8188
8111
8227
8100
8267
8111
8256
8132
8204
8160
8162
8218
8165
8245
8154
8212
8170
8164
8202
8100
8222
8073
8251
8057
8224
8068
8178
8099
8116
8126
8080
8173
8068
8169
8072
8150
8103
8128
8142
8092
8170
8084
8186
8104
8182
8146
8151
8188
8105
8233
8082
8270
8083
8268
8123
8238
8162
8200
8202
8154
8224
8150
8239
8182
8206
8208
8154
8226
8108
8251
8090
8239
8099
8215
8135
8151
8155
8083
8182
8049
8191
8055
8178
8078
8148
8121
8124
8161
8106
8167
8097
8175
8132
8139
8182
8105
8223
8069
8248
8065
8255
8108
8247
8160
8203
8193
8168
8238
8150
8267
8160
8231
8162
8163
8188
8126
8228
8104
8220
8110
8209
8155
8160
8169
8088
8191
8043
8192
8013
8189
8050
8179
8096
8126
8108
8071
8125
8079
8170
8132
8176
8178
8121
8187
8051
8176
8021
8188
8056
8193
8117
8176
8175
8117
8214
8115
8254
8116
8261
8142
8219
8184
8180
8211
8136
8214
8131
8212
8159
8170
8188
8113
8208
8064
8235
8031
8223
8064
8197
8088
8151
8122
8109
8150
8075
8160
8079
8144
8105
8121
8150
8090
8182
8079
8209
8082
8188
8113
8151
8164
8115
8215
8101
8263
8101
8273
8122
8258
8148
8191
8186
8144
8206
8127
8196
8139
8176
8178
8129
8216
8105
8256
8078
8261
8095
8225
8107
8151
8117
8082
8153
8052
8184
8067
8198
8098
8163
8129
8122
8153
8082
8174
8084
8167
8107
8135
8163
8098
8202
8063
8249
8066
8254
8076
8241
8123
8210
8189
8169
8216
8144
8231
8134
8208
8167
8186
8212
8139
8245
8106
8249
8101
8202
8104
8168
8161
8137
8206
8084
8220
8042
8178
8028
8141
8075
8130
8139
8108
8161
8100
8168
8103
8137
8138
8105
8182
8064
8215
8061
8244
8074
8225
8112
8191
8174
8177
8233
8145
8263
8132
8252
8139
8203
8166
8156
8212
8135
8233
8122
8215
8137
8184
8175
8136
8220
8080
8226
8045
8221
8031
8181
8059
8139
8104
8096
8139
8090
8168
8097
8159
8126
8116
8140
8086
8201
8065
8206
8062
8200
8090
8171
8157
8154
8221
8126
8267
8121
8281
8133
8257
8175
8206
8192
8144
8201
8118
8200
8133
8182
8181
8162
8217
8096
8223
8061
8237
8051
8202
8062
8153
8101
8106
8125
8070
8159
8071
8161
8081
8135
8113
8104
8152
8082
8184
8085
8193
8104
8163
8150
8121
8201
8101
8257
8081
8267
8093
8246
8114
8210
8169
8173
8199
8136
8223
8144
8214
8167
8177
8198
8119
8239
8085
8235
8064
8206
8081
8165
8113
8106
8161
8060
8174
8048
8173
8050
8158
8082
8133
8128
8103
8160
8093
8170
8107
8167
8143
8126
8188
8085
8219
8048
8242
8072
8251
8106
8238
8174
8190
8213
8147
8235
8136
8235
8143
8201
8184
8166
8240
8138
8251
8118
8229
8122
8188
8144
8120
8174
8083
8204
8039
8205
8039
8195
8071
8168
8121
8134
8155
8110
8167
8099
8147
8109
8110
8141
8077
8192
8059
8231
8065
8220
8092
8206
8153
8167
8205
8129
8243
8119
8257
8119
8240
8154
8207
8206
8168
8243
8136
8216
8138
8203
8171
8160
8209
8099
8233
8067
8251
8045
8201
8051
8171
8081
8108
8127
8093
8165
8092
8167
8100
8148
8130
8115
8177
8098
8226
8089
8224
8112
8193
8146
8158
8193
8117
8243
8098
8277
8099
8264
8130
8223
8170
8184
8203
8144
8224
8143
8212
8171
8170
8199
8120
8220
8067
8236
8055
8213
8064
8180
8097
8144
8149
8085
8168
8046
8151
8039
8135
8087
8129
8132
8101
8165
8076
8172
8087
8165
8121
8118
8163
8073
8211
8065
8260
8065
8262
8102
8234
8162
8199
8205
8172
8228
8147
8233
8155
8211
8201
8159
8220
8117
8248
8094
8235
8092
8194
8110
8132
8142
8058
8163
8041
8194
8041
8178
8064
8151
8104
8124
8138
8088
8156
8092
8160
8113
8128
8165
8095
8201
8073
8242
8065
8258
8093
8230
8143
8196
8195
8164
8233
8133
8250
8135
8251
8183
8217
8210
8154
8211
8103
8207
8097
8193
8145
8148
8166
8082
8190
8035
8202
8022
8194
8035
8169
8073
8122
8119
8097
8143
8074
8154
8095
8137
8131
8116
8184
8084
8209
8065
8217
8076
8197
8125
8181
8193
8155
8247
8132
8285
8129
8274
8132
8215
8155
8177
8195
8143
8224
8129
8193
8131
8141
8174
8111
8211
8073
8238
8052
8220
8047
8178
8071
8128
8103
8082
8150
8069
8163
8072
8150
8103
8131
8140
8111
8188
8100
8215
8100
8198
8118
8154
8159
8106
8224
8089
8262
8100
8282
8119
8255
8140
8200
8185
8158
8218
8148
8239
8161
8209
8195
8157
8226
8110
8244
8076
8225
8066
8189
8087
8152
8139
8091
8165
8049
8182
8049
8182
8088
8166
8124
8135
8152
8100
8160
8086
8158
8107
8139
8161
8104
8208
8084
8258
8087
8280
8098
8248
8116
8198
8175
8161
8210
8129
8238
8134
8208
8150
8189
8207
8145
8242
8124
8263
8129
8226
8128
8166
8148
8095
8179
8055
8194
8027
8185
8035
8178
8077
8134
8116
8109
8153
8094
8154
8107
8152
8139
8115
8191
8083
8217
8063
8240
8078
8227
8114
8192
8178
8168
8222
8123
8248
8111
8238
8125
8214
8162
8168
8199
8143
8232
8127
8211
8137
8172
8162
8109
8200
8070
8223
8042
8221
8038
8198
8064
8151
8104
8108
8141
8084
8156
8085
8158
8106
8134
8149
8096
8184
8086
8216
8084
8208
8112
8184
8175
8153
8219
8118
8262
8110
8282
8122
8270
8155
8226
8207
8187
8223
8155
8231
8142
8198
8191
8166
8218
8108
8222
8050
8207
8042
8199
8075
8163
8104
8105
8132
8053
8158
8063
8171
8071
8148
8114
8127
8157
8098
8181
8088
8186
8107
8161
8148
8117
8205
8095
8257
8086
8269
8086
8255
8117
8218
8173
8186
8217
8153
8239
8144
8213
8150
8184
8183
8115
8209
8087
8229
8086
8220
8092
8162
8107
8094
8153
8052
8184
8033
8177
8049
8184
8089
8130
8113
8107
8158
8106
8172
8103
8167
8145
8129
8195
8093
8216
8062
8256
8086
8262
8118
8227
8173
8189
8212
8141
8234
8127
8236
8135
8202
8170
8172
8211
8134
8242
8127
8227
8120
8179
8148
8113
8181
8077
8211
8039
8205
8028
8187
8043
8143
8084
8107
8135
8092
8167
8098
8164
8121
8140
8155
8094
8199
8080
8235
8074
8224
8112
8218
8162
8178
8217
8144
8265
8123
8278
8134
8262
8147
8191
8150
8138
8205
8148
8238
8141
8186
8130
8120
8163
8062
8186
8026
8176
8020
8195
8048
8170
8087
8103
8117
8075
8148
8076
8194
8132
8200
8147
8142
8187
8113
8223
8103
8215
8100
8183
8138
8142
8192
8115
8245
8097
8276
8108
8278
8132
8240
8180
8194
8199
8147
8213
8138
8212
8149
8177
8180
8110
8206
8071
8228
8053
8208
8063
8173
8084
8117
8135
8067
8168
8045
8174
8048
8165
8086
8149
8126
8113
8156
8081
8161
8090
8167
8125
8143
8182
8096
8226
8076
8269
8087
8278
8103
8236
8155
8201
8198
8167
8230
8147
8245
8162
8224
8194
8172
8213
8115
8231
8095
8219
8098
8185
8102
8114
8147
8071
8175
8028
8194
8030
8180
8055
8157
8099
8127
8142
8102
8168
8102
8170
8129
8148
8170
8114
8211
8084
8249
8082
8261
8099
8220
8143
8192
8190
8158
8238
8133
8262
8120
8239
8147
8206
8193
8162
8226
8132
8233
8121
8203
8151
8161
8170
8088
8196
8045
8209
8019
8193
8034
8176
8075
8127
8113
8102
8151
8084
8161
8090
8143
8123
8121
8173
8094
8209
8071
8207
8069
8200
8138
8175
8184
8150
8242
8121
8273
8109
8265
8121
8224
8150
8188
8186
8146
8226
8145
8211
8145
8171
8179
8113
8206
8079
8236
8065
8251
8073
8212
8092
8152
8124
8093
8156
8056
8152
8051
8157
8102
8159
8159
8133
8183
8093
8176
8075
8174
8112
8153
8167
8109
8215
8080
8260
8079
8274
8103
8268
8163
8223
8195
8176
8224
8140
8220
8140
8199
8161
8144
8191
8094
8212
8065
8211
8054
8176
8069
8119
8104
8070
8161
8056
8199
8053
8189
8064
8157
8097
8126
8135
8108
8178
8100
8160
8111
8147
8163
8111
8198
8084
8250
8081
8273
8099
8274
8155
8240
8204
8190
8228
8144
8246
8138
8235
8151
8202
8195
8156
8234
8128
8242
8116
8212
8126
8159
8150
8095
8174
8039
8201
8028
8190
8029
8181
8072
8144
8112
8104
8144
8076
8154
8089
8149
8127
8134
8193
8113
8240
8074
8225
8082
8228
8115
8201
8179
8174
8236
8123
8260
8121
8259
8128
8252
8185
8202
8205
8152
8221
8124
8213
8138
8179
8165
8118
8209
8102
8253
8063
8224
8018
8177
8041
8125
8087
8100
8161
8096
8183
8084
8169
8097
8130
8119
8090
8163
8059
8171
8049
8141
8042
8094
8082
8066
8146
8043
8198
8055
8242
8074
8229
8126
8203
8179
8171
8223
8173
8255
8150
8187
8152
8151
8207
8117
8270
8124
8283
8100
8249
8127
8217
8169
8174
8222
8119
8209
8082
8231
8124
8229
8200
8217
8203
8118
8176
8094
8183
8105
8163
8130
8094
8173
8066
8217
8057
8260
8078
8261
8117
8211
8150
8157
8188
8141
8208
8086
8147
8046
8018
7981
7953
8035
7942
8048
7924
8062
7991
8053
8003
7989
8066
8025
8202
8058
8270
8120
8224
8041
8116
8169
8302
8420
8382
8475
8420
8425
8337
8286
8315
8220
8336
8171
8343
8171
8333
8194
8286
8214
8226
8259
8197
8282
8151
8274
8146
8231
8157
8172
8194
8126
8188
8082
8167
8079
8138
8112
8066
8097
7955
8044
7841
7975
7806
7959
7828
7951
7938
8002
8086
8136
8273
8203
8298
8252
8272
8219
8105
8136
8037
8160
8016
8148
8054
8177
8160
8200
8326
8362
8580
8437
8495
8287
8382
8278
8344
8318
8313
8323
8252
8313
8227
8249
8165
8113
8142
8065
8196
8046
8187
7996
8136
7970
8062
8004
8066
8133
8103
8165
8013
8072
7965
8061
8021
8037
8003
7851
7880
7766
7810
7703
7827
7894
7951
8015
7946
8127
8114
8531
8505
8597
8375
8496
8472
8494
8435
8329
8349
8246
8260
8146
8146
8150
8117
8196
8046
8145
8014
8198
8103
8263
8279
8348
8395
8303
8348
8150
8275
8111
8242
8116
8186
8135
8135
8177
8159
8262
8162
8213
8160
8157
8185
8109
8241
8083
8219
8020
8188
8040
8170
8080
8125
8122
8066
8132
8029
8112
8050
8166
8103
8067
8077
8019
8113
8007
8118
8029
8098
8027
8022
8093
8060
8175
8026
8217
8026
8103
7904
7955
7859
7875
7868
7876
7980
7970
8093
8105
8188
8250
8315
8512
8386
8469
8332
8494
8336
8431
8331
8348
8338
8255
8322
8166
8285
8169
8307
8151
8170
8119
8104
8119
8038
8120
8048
8082
8044
8063
8067
7995
8096
7943
8136
8005
8234
8144
8307
8162
8193
8170
8100
8075
7962
8048
7942
8008
8006
8024
8062
8037
8144
8086
8288
8209
8349
8393
8450
8400
8255
8341
8163
8281
8080
8239
8075
8152
8088
8182
8278
8394
8502
8401
8407
8334
8344
8310
8228
8281
8128
8269
8100
8265
8091
8184
8040
8081
8071
8040
8121
8042
8153
8010
8107
8010
8067
8049
8073
8097
7991
8071
8007
8114
8069
8090
8105
8079
8256
8171
8357
8164
8341
8121
8209
8058
8104
8097
8128
8213
8137
8231
8112
8124
8069
8065
8093
8005
8076
7924
8032
7951
8100
8035
8094
8125
8084
8132
7990
8199
8068
8245
8133
8284
8160
8135
8068
8009
8114
8121
8162
8072
8075
8046
7993
8068
8007
8269
8154
8206
7757
7703
7558
7602
7548
7566
7697
7655
7849
7943
8420
8740
8986
8983
8906
8851
8720
8765
8568
8557
8404
8362
8334
8292
8412
8345
8563
8383
8483
8203
8287
8207
8418
8441
8364
8346
8277
8356
8324
8422
8396
8370
8342
8169
8248
8123
8191
7892
7928
7782
7775
7700
7650
7803
7771
7795
7604
7790
7748
7984
8102
8318
8379
8423
8476
8344
8356
8241
8261
8206
8077
8048
7934
8185
8245
8504
8283
8437
8347
8429
8379
8314
8317
8242
8340
8251
8333
8245
8288
8261
8257
8342
8281
8364
8218
8268
8109
8116
8091
8057
8124
7947
7994
7766
7809
7536
7606
7411
7465
7426
7513
7702
7867
8042
8108
8206
8228
8314
8387
8278
8302
8130
8301
8115
8225
8099
8158
8089
8074
8122
8084
8318
8212
8378
8305
8388
8233
8300
8408
8466
8576
8508
8499
8317
8247
8119
8061
8133
8091
8344
8317
8609
8439
8546
8353
8354
8207
8183
8199
8130
8212
8121
8204
8101
8152
8137
8063
8029
7904
7951
7757
7831
7770
7859
7832
7862
7980
7928
8124
8165
8390
8187
8378
8248
8327
8242
8128
8004
7921
8005
7960
8019
7977
8010
8154
8259
8336
8053
8191
8109
8293
8126
8193
8078
8022
8014
7949
8062
7978
8143
8054
8280
8234
8238
8209
8212
8265
8123
8199
8109
8177
8120
8084
8124
8043
8148
7930
8005
7792
7929
7779
7883
7838
7886
7915
7959
8101
8167
8324
8201
8181
8138
8116
8255
8277
8454
8407
8645
8572
8621
8516
8454
8428
8254
8278
8093
8266
8132
8294
8164
8258
8141
8103
8085
7964
7941
7867
7949
7845
7752
7714
7649
7791
7682
7914
7863
8203
8321
8683
8757
8867
8900
8763
8660
8378
8364
8221
8314
8251
8273
8287
8244
8289
8232
8365
8303
8326
8190
8087
8117
8085
8268
8145
8375
8176
8323
8179
8250
8003
7918
7869
7818
7877
7847
7998
8012
8154
8308
8463
8550
8331
8286
8044
8113
7932
7978
7881
7868
7908
7942
8259
8230
8325
8113
8154
7906
7873
7708
7624
7646
7692
7922
8059
8348
8506
8677
8793
8683
8742
8536
8598
8338
8387
8133
8223
8167
8244
8226
8140
8171
8025
8087
7983
8089
8070
8148
8188
8124
8170
8020
7986
7829
7917
7935
8005
7998
7828
7915
7948
8213
7927
8013
7845
8031
8093
8287
8441
8498
8542
8430
8463
8333
8282
8195
8118
8151
8068
8255
8159
8334
8183
8309
8217
8231
8211
8126
8192
8058
8190
8035
8163
8041
8107
8079
8118
8137
8115
8243
8226
8285
8145
8060
8041
8003
8110
8019
8193
7991
8157
8013
8142
7953
7849
7649
7498
7493
7402
7496
7433
7621
7818
8093
8310
8468
8667
8620
8755
8565
8577
8455
8383
8330
8252
8378
8284
8478
8360
8510
8321
8437
8332
8351
8313
8271
8279
8169
8252
8196
8244
8325
8385
8473
8319
8351
8127
8215
7959
8013
7903
7936
7910
7896
7969
7891
8033
8033
8293
8153
8350
8343
8276
8207
8098
8134
8009
8011
7914
7941
7961
7931
8033
8005
8286
8220
8393
8111
8211
8079
8106
8001
7955
7964
7976
8268
8280
8313
8200
8255
8304
8362
8445
8264
8337
8133
8144
7996
7994
7969
7898
7966
7940
8223
8191
8381
8175
8183
7937
7954
8034
8190
8354
8337
8403
8299
8290
8181
7989
7971
7873
7989
7799
7930
7865
8184
8339
8643
8574
8511
8588
8502
8484
8256
8336
8198
8254
8184
8196
8237
8164
8247
8102
8095
7921
7917
7914
7889
7957
7840
7995
7928
8266
8225
8436
8315
8317
8191
8143
8130
8036
8161
8201
8370
8353
8324
8212
8026
8001
7843
7999
7921
8128
8093
8215
8244
8316
8402
8263
8360
8194
8327
8154
8295
8191
8262
8213
8169
8209
8136
8179
8111
8147
8089
8039
8105
8013
8091
7908
8067
7916
8046
7881
7978
7946
7999
8042
7948
8044
8047
8339
8205
8271
8218
8122
8102
8073
8122
7978
8053
7991
8129
8264
8360
8484
8312
8346
8100
8249
8057
8213
8018
8052
8002
8179
8287
8199
8272
8169
8290
8285
8310
8345
8318
8368
8190
8318
8134
8259
8143
8244
8169
8120
8145
8058
8189
8046
8154
7997
8132
8052
8130
8116
8108
8170
8151
8252
8173
8230
8157
8059
8051
7966
8100
8022
8259
8091
8323
8238
8376
8227
8170
8108
7996
8012
7864
7941
7863
7920
7845
7853
7974
7947
8055
8089
8247
8245
8377
8317
8353
8414
8245
8358
8205
8351
8106
8184
7998
8089
8039
8083
8136
8165
8301
8268
8331
8265
8297
8317
8279
8387
8290
8388
8189
8323
8182
8297
8222
8252
8300
8224
8300
8112
8176
7960
8017
7916
7999
7983
8001
8134
8263
8360
8221
8286
8236
8216
8200
8033
8022
7757
7859
7586
7632
7469
7726
7866
8116
8159
8255
8550
8585
8525
8295
8284
8182
8183
8243
8239
8446
8437
8585
8433
8442
8368
8371
8366
8263
8357
8190
8323
8109
8237
8031
8125
8058
8125
8162
8141
8227
8156
8274
8269
8298
8287
8134
8086
7867
7967
7801
7937
7804
7943
7887
7969
8059
8095
8166
7985
8051
7950
8114
8029
8067
8041
8176
8242
8054
8068
8016
8170
8250
8349
8387
8338
8289
7942
8036
7915
8157
8062
8241
8240
8447
8547
8534
8495
8306
8310
8176
8244
8209
8198
8215
8149
8270
8143
8261
8060
8094
7990
7963
7916
7832
7915
7805
8033
8017
8209
8135
8380
8284
8228
8219
8215
8294
8163
8132
7961
7812
7704
7648
7775
7649
7781
7714
8134
8329
8684
8626
8648
8565
8448
8467
8277
8268
8113
8358
8424
8525
8451
8360
8351
8196
8165
7983
8046
8015
8105
8165
8141
8252
8114
8263
8077
8304
8205
8367
8197
8201
8154
8132
8177
8078
8148
8076
8136
8098
8058
8059
7956
8070
7985
8160
8039
8129
8047
8151
8177
8191
8286
8172
8302
8143
8287
8110
8182
8056
8034
7997
8043
8181
8093
8119
8056
8092
8077
8014
8084
7964
8103
7973
8259
8134
8302
8196
8262
8217
8246
8333
8217
8243
8103
8178
8089
8145
8144
8117
8154
8087
8221
8130
8238
8139
8067
7965
7897
7973
7886
8062
7991
8265
8052
8073
7847
7879
7793
7792
7844
7884
8227
8500
8547
8412
8466
8471
8249
8175
7900
8000
7926
8143
8164
8395
8431
8441
8557
8486
8574
8409
8464
8259
8260
8081
8094
8126
8133
8240
8160
8243
8139
8146
8093
8034
8073
7995
8158
8053
8296
8116
8285
8156
8264
8232
8262
8248
8098
8116
7979
8037
7927
7922
7924
8048
8136
8032
8179
8131
8235
8062
8207
8224
8171
8234
8140
8220
7993
8117
7971
8127
8040
8168
8155
8199
8250
8212
8203
7987
7948
7894
7899
7998
8081
8368
8355
8622
8495
8543
8316
8334
8220
8185
8179
8070
8194
8190
8472
8395
8411
8285
8311
8277
8202
8203
8073
8130
8053
8107
8105
8109
8159
8076
8206
8006
8156
7991
8141
7965
8041
7958
7989
8005
7963
8058
8076
8288
8145
8133
8138
8129
8150
8018
8101
7987
8155
8107
8212
8120
7993
7871
7684
7823
7752
7978
7957
8219
8226
8482
8506
8396
8235
8058
8018
7925
8013
8076
8251
8447
8314
8394
8325
8460
8198
8300
8176
8346
8333
8402
8362
8229
8252
8118
8225
8109
8230
8153
8222
8240
8201
8253
8139
8234
8108
8194
8147
8115
8115
8017
8170
8020
8146
7993
8118
7959
8170
8187
8253
8239
8194
8222
8115
8172
8056
8097
8093
8028
8047
7995
8251
8086
8118
7917
7973
7933
8008
8084
8158
8473
8440
8508
8310
8375
8190
8237
8128
8109
8092
8054
8215
8273
8279
8163
8194
8249
8201
8290
8143
8314
8145
8326
8138
8253
8154
8197
8164
8098
8141
8048
8157
8096
8166
8074
8065
8003
7913
7953
7889
8019
7934
8005
8042
8174
8186
8141
8237
8082
8299
8256
8452
8260
8409
8304
8271
8190
8117
8120
8045
8128
8079
8117
8112
8092
8148
8047
8164
8028
8205
8071
8205
8096
8150
8129
8062
8144
8032
8165
8049
8256
8178
8295
8235
8261
8256
8115
8066
7912
7940
7893
7949
8032
8061
8216
8183
8435
8219
8332
8102
8234
8095
8149
8071
8024
8087
8052
8166
8090
8173
8126
8153
8126
8055
8104
7986
8060
8005
8204
8088
8072
8034
8004
8075
7949
8083
7937
8296
8365
8448
8302
8452
8505
8366
8376
8344
8452
8350
8330
8326
8336
8339
8156
8270
8126
8290
8121
8268
8109
8147
8103
8062
8040
7878
7990
7903
8031
7931
8023
8016
8222
8451
8395
8422
8351
8428
8354
8365
8308
8229
8296
8169
8331
8076
8100
7824
7909
7713
7766
7736
7841
8039
8138
8293
8339
8543
8490
8411
8364
8310
8389
8263
8299
8090
8139
8044
8115
8095
8089
8209
8116
8236
8050
8191
8056
8167
8004
8022
8012
8013
8073
8064
8140
8056
8091
8123
8195
8227
8091
8236
8096
8261
8058
8186
8057
8151
8093
8070
8106
8063
8208
8123
8258
8124
8219
8152
8142
8126
8039
8099
8033
8144
8085
8164
8133
8061
8113
7987
8065
7854
7989
7849
8062
7981
8103
8091
8227
8378
8382
8478
8328
8291
8159
8179
8165
8066
8135
8046
8165
8009
8106
7991
8157
8253
8239
8310
8296
8400
8201
8340
8162
8274
8142
8237
8224
8211
8245
8173
8274
8262
8321
8221
8215
8233
7997
7997
7788
7947
7813
7993
7885
8084
8192
8300
8361
8271
8301
8152
8266
8150
8241
8171
8115
8045
7809
7741
7623
7772
7681
7811
8006
8323
8679
8817
8913
8665
8733
8425
8455
8222
8301
8230
8251
8239
8205
8303
8231
8257
8152
8176
8175
8080
8089
7941
8091
7974
8097
7964
8066
8066
8146
8220
8158
8219
8095
8242
8081
8189
8056
8094
8084
8091
8126
8075
8156
8116
8214
8172
8164
8238
8194
8277
8090
8267
8077
8232
8048
8108
7986
8018
8059
8046
8123
8064
8223
8176
8326
8308
8289
8231
8120
8174
8013
8061
7928
8008
7965
7979
8020
7989
8270
8212
8370
8209
8343
8117
8156
8049
8064
8042
7986
8040
7971
8013
7987
8085
8178
8189
8235
8037
8094
7897
8106
8139
8431
8461
8567
8584
8521
8548
8378
8377
8060
8100
8029
8140
8135
8151
8206
8131
8206
8110
8203
8182
8166
8134
8016
8114
8026
8297
8103
8245
8056
8172
8040
8084
8069
8068
8161
8086
8148
8065
8107
8060
8061
8078
8030
8153
8119
8363
8277
8328
8231
8231
8224
8124
8190
8063
8252
8096
8284
8091
8125
7937
7892
7870
7850
7928
7917
8119
8207
8405
8499
8402
8381
8194
8304
8098
8258
8089
8238
8152
8230
8241
8204
8248
8125
8229
8088
8202
8098
8161
8143
8148
8195
8122
8184
8087
8187
8111
8159
8189
8126
8237
8093
8258
8065
8245
8057
8190
8075
8126
8105
8103
8173
8120
8227
8155
8249
8189
8166
8193
8113
8200
8049
8167
8032
8128
8049
8130
8146
8129
8219
8083
8146
7897
7979
7826
7931
7839
7877
7862
7971
8255
8243
8360
8382
8448
8430
8392
8499
8382
8438
8118
8127
7881
8067
8010
8132
8125
8139
8218
8231
8335
8226
8389
8271
8251
8207
8206
8215
8140
8247
8093
8147
8063
8091
8094
8088
8209
8125
8234
7934
7983
7777
7884
7665
7633
7557
7580
7726
7902
8154
8342
8768
8924
8895
8852
8661
8666
8432
8416
8163
8236
8114
8212
8196
8191
8253
8168
8281
8130
8282
8123
8253
8153
8206
8191
8150
8174
8086
8137
8067
8096
8086
8068
8132
8019
8155
8009
8184
8023
8179
8035
8128
8083
8096
8120
8046
8111
7994
8096
8021
8084
8076
8083
8133
8053
8146
8037
8124
8100
8223
8231
8241
8342
8264
8382
8152
8291
8082
8207
8062
8122
8048
8046
8070
8005
8044
7947
8040
8052
8071
8083
8033
8175
8150
8413
8347
8410
8187
8268
8256
8266
8276
8144
8198
8042
8174
8069
8200
8118
8195
8190
8146
8190
8092
8170
8101
8148
8115
8121
8200
8115
8263
8097
8258
8064
8233
8090
8196
8113
8151
8177
8131
8213
8106
8169
8088
8136
8112
8096
8126
8027
8130
8043
8208
8138
8216
8091
8032
8076
8020
8137
7978
8111
7947
8166
8105
8140
8050
8097
8131
8104
8204
8121
8183
8134
8125
8248
8248
8362
8234
8363
8150
8297
8124
8214
8165
8243
8305
8329
8441
8281
8383
8238
8288
8168
8219
8210
8155
8196
8108
8211
8128
8178
8101
8069
8082
7997
8108
7975
8150
7973
8128
7979
8099
7986
8001
7985
7918
7912
7805
7906
7927
8159
8230
8187
8217
8005
8008
7841
7991
7951
8075
8023
8094
8332
8525
8680
8570
8818
8664
8775
8532
8481
8260
8185
8184
8142
8261
8241
8316
8248
8225
8209
8117
8224
8106
8300
8111
8269
8075
8166
8057
8103
8113
8089
8175
8074
8188
8054
8128
8051
8097
8099
8065
8126
8056
8149
8067
8164
8111
8122
8167
8089
8203
8051
8225
8023
8169
7976
8045
7902
7905
7865
7861
7957
7975
8102
8112
8298
8398
8430
8467
8310
8343
8134
8255
8082
8173
8073
8108
8120
8089
8200
8079
8241
8080
8226
8102
8198
8123
8132
8135
8093
8155
8100
8187
8138
8169
8179
8134
8228
8099
8266
8088
8281
8110
8262
8176
8239
8196
8173
8209
8100
8199
8091
8181
8130
8187
8186
8128
8172
8065
8143
8023
8099
8047
8090
8117
8077
8180
8054
8188
7987
8159
8055
8225
8119
8179
8162
8120
8142
8072
8138
8073
8109
8118
8144
8276
8223
8326
8121
8262
8107
8264
8177
8224
8197
8149
8198
8087
8247
8115
8282
8155
8256
8157
8158
8153
8113
8173
8100
8168
8110
8163
8160
8099
8183
8048
8207
8042
8238
8068
8229
8093
8164
8119
8109
8160
8088
8162
8050
8077
7948
7927
7913
7872
7970
7920
8091
8100
8331
8315
8445
8520
8492
8500
8320
8428
8234
8353
8146
8273
8150
8210
8164
8132
8158
8079
8149
8110
8194
8196
8147
8174
8088
8231
8072
8220
8062
8210
8063
8115
8092
8103
8160
8079
8203
8080
8224
8089
8166
8107
8115
8113
8048
8121
8066
8189
8120
8161
8124
8095
8204
8130
8318
8132
8306
8117
8311
8218
8302
8216
8187
8206
8139
8240
8141
8189
8109
8134
8141
8090
8161
8064
8171
8047
8169
8059
8117
8090
8070
8146
8040
8175
8018
8175
8030
8186
8102
8186
8146
8129
8152
8094
8158
8099
8143
8115
8083
8142
8059
8183
8030
8206
8072
8278
8171
8259
8187
8181
8240
8209
8319
8193
8306
8177
8252
8187
8194
8210
8143
8222
8112
8186
8081
8133
8114
8092
8158
8051
8197
8023
8190
8031
8194
8064
8172
8106
8115
8138
8098
8157
8074
8157
8129
8184
8183
8132
8213
8118
8276
8133
8280
8160
8239
8194
8195
8223
8112
8225
8084
8254
8101
8237
8118
8191
8142
8135
8172
8113
8167
8098
8150
8126
8114
8144
8053
8181
8032
8202
8051
8224
8075
8163
8081
8106
8120
8058
8150
8066
8188
8112
8211
8165
8195
8216
8132
8192
8082
8202
8113
8185
8152
8145
8199
8109
8251
8085
8266
8083
8264
8118
8226
8137
8174
8209
8191
8232
8130
8183
8114
8135
8141
8097
8171
8052
8178
8047
8197
8058
8157
8097
8119
8156
8088
8197
8068
8213
8075
8215
8113
8189
8155
8149
8193
8125
8209
8137
8207
8178
8195
8243
8169
8282
8104
8281
8096
8271
8103
8232
8149
8186
8193
8135
8205
8104
8202
8095
8159
8126
8135
8166
8100
8193
8090
8198
8090
8175
8113
8120
8166
8076
8187
8037
8217
8047
8215
8065
8191
8112
8146
8157
8130
8175
8112
8180
8137
8180
8189
8139
8233
8111
8263
8100
8274
8121
8249
8166
8194
8207
8154
8246
8127
8262
8120
8247
8127
8188
8133
8128
8157
8087
8158
8087
8151
8107
8116
8153
8084
8194
8041
8213
8042
8220
8051
8179
8079
8130
8123
8107
8175
8100
8186
8106
8174
8144
8163
8201
8124
8218
8106
8244
8133
8242
8179
8190
8208
8148
8258
8121
8275
8107
8273
8122
8237
8147
8187
8177
8136
8193
8114
8178
8120
8136
8132
8080
8156
8047
8181
8027
8189
8034
8177
8075
8139
8111
8087
8161
8069
8193
8079
8193
8107
8171
8143
8143
8193
8129
8231
8124
8217
8161
8189
8214
8159
8251
8114
8282
8096
8278
8100
8244
8128
8199
8170
8163
8199
8118
8197
8111
8168
8125
8125
8136
8072
8164
8045
8173
8049
8166
8064
8109
8104
8078
8159
8019
8150
8019
8188
8069
8192
8122
8203
8194
8159
8239
8166
8267
8210
8239
8243
8204
8273
8148
8323
8158
8332
8139
8279
8156
8217
8179
8172
8208
8122
8225
8104
8222
8118
8170
8139
8119
8156
8080
8165
8065
8151
8079
8120
8112
8084
8171
8051
8208
8039
8220
8045
8199
8076
8167
8123
8130
8174
8107
8178
8103
8165
8139
8156
8195
8128
8247
8118
8271
8116
8248
8134
8211
8173
8164
8226
8123
8259
8092
8231
8067
8170
8084
8127
8115
8083
8132
8073
8191
8165
8206
8175
8125
8192
8084
8227
8047
8189
8008
8170
8040
8142
8088
8096
8128
8091
8253
8215
8292
8154
8214
8204
8167
8211
8123
8238
8125
8232
8144
8213
8185
8164
8218
8111
8245
8080
8268
8089
8251
8108
8199
8144
8149
8177
8115
8182
8101
8152
8108
8116
8137
8068
8167
8046
8186
8047
8202
8070
8167
8106
8116
8164
8084
8199
8077
8211
8080
8203
8112
8158
8147
8119
8178
8112
8197
8124
8192
8169
8165
8214
8108
8233
8079
8252
8062
8220
8066
8185
8113
8151
8174
8139
8232
8133
8220
8123
8158
8146
8142
8191
8110
8225
8096
8209
8100
8188
8146
8121
8162
8063
8183
8037
8208
8044
8199
8067
8173
8118
8145
8183
8139
8198
8118
8203
8179
8193
8222
8152
8264
8118
8278
8097
8260
8113
8229
8153
8168
8184
8104
8190
8078
8209
8079
8166
8089
8156
8204
8182
8212
8095
8160
8066
8127
8090
8088
8135
8090
8234
8070
8242
8069
8268
8105
8230
8120
8154
8137
8100
8157
8089
8168
8105
8152
8143
8139
8215
8134
8261
8111
8238
8115
8215
8154
8176
8207
8153
8271
8128
8286
8102
8244
8100
8194
8126
8154
8166
8125
8185
8124
8191
8127
8123
8124
8064
8161
8034
8184
8026
8196
8044
8173
8083
8140
8128
8099
8187
8091
8208
8093
8187
8117
8157
8157
8144
8214
8132
8246
8144
8235
8184
8203
8221
8151
8248
8101
8278
8089
8275
8102
8230
8135
8190
8168
8133
8182
8110
8175
8105
8144
8124
8105
8148
8056
8169
8034
8178
8038
8156
8066
8106
8114
8082
8172
8055
8200
8057
8220
8088
8185
8110
8132
8149
8109
8183
8130
8199
8152
8194
8206
8159
8247
8113
8279
8097
8281
8104
8247
8146
8215
8191
8169
8222
8118
8220
8118
8222
8128
8160
8143
8106
8173
8081
8173
8069
8168
8089
8139
8147
8093
8194
8063
8221
8056
8235
8072
8216
8105
8169
8145
8140
8188
8119
8190
8130
8195
8182
8173
8227
8144
8276
8121
8280
8121
8264
8147
8207
8187
8163
8226
8117
8238
8093
8240
8101
8200
8127
8145
8146
8101
8163
8090
8151
8086
8129
8126
8087
8171
8054
8205
8037
8217
8045
8209
8088
8179
8131
8130
8177
8109
8201
8101
8183
8125
8170
8186
8150
8239
8129
8259
8138
8244
8159
8219
8202
8166
8238
8116
8266
8103
8270
8092
8231
8109
8191
8148
8133
8166
8107
8154
8090
8132
8107
8092
8135
8053
8175
8041
8205
8047
8203
8066
8166
8117
8112
8167
8088
8207
8087
8208
8090
8178
8118
8144
8159
8130
8220
8127
8229
8170
8228
8208
8174
8230
8117
8272
8091
8287
8094
8265
8124
8220
8161
8168
8175
8114
8170
8087
8158
8097
8123
8123
8083
8161
8071
8187
8068
8195
8077
8166
8119
8122
8174
8081
8214
8065
8228
8061
8191
8071
8150
8113
8125
8160
8134
8244
8176
8234
8205
8193
8239
8147
8268
8119
8297
8112
8278
8126
8234
8168
8190
8211
8142
8233
8112
8235
8099
8190
8120
8130
8138
8091
8159
8075
8161
8074
8151
8109
8104
8159
8076
8208
8044
8229
8045
8216
8077
8202
8119
8144
8164
8115
8161
8082
8163
8111
8148
8147
8139
8222
8125
8272
8124
8273
8139
8241
8175
8190
8214
8154
8246
8106
8252
8096
8253
8121
8201
8144
8140
8155
8101
8154
8087
8142
8102
8113
8139
8075
8191
8050
8226
8036
8210
8056
8187
8099
8153
8156
8113
8192
8100
8208
8104
8178
8130
8156
8189
8130
8234
8135
8258
8149
8234
8179
8193
8215
8134
8250
8104
8284
8099
8274
8103
8216
8129
8178
8168
8132
8195
8107
8165
8107
8132
8116
8080
8145
8049
8182
8039
8200
8053
8181
8090
8137
8144
8099
8189
8070
8211
8081
8223
8098
8183
8123
8137
8169
8126
8203
8132
8219
8167
8189
8207
8136
8239
8105
8275
8090
8275
8100
8248
8146
8196
8176
8159
8206
8108
8200
8097
8166
8114
8125
8137
8080
8159
8055
8173
8064
8165
8091
8140
8151
8096
8187
8050
8219
8059
8234
8074
8210
8121
8172
8149
8126
8176
8109
8201
8138
8189
8186
8166
8236
8126
8273
8105
8263
8098
8244
8143
8198
8177
8158
8223
8118
8232
8100
8230
8104
8172
8120
8118
8141
8083
8156
8073
8152
8093
8125
8131
8081
8175
8050
8205
8039
8236
8059
8214
8099
8182
8138
8158
8198
8121
8204
8114
8202
8151
8169
8192
8147
8251
8138
8270
8130
8248
8160
8203
8194
8169
8236
8129
8272
8102
8262
8094
8221
8117
8188
8158
8136
8173
8103
8163
8092
8121
8118
8094
8178
8078
8208
8049
8232
8057
8206
8085
8178
8146
8148
8195
8108
8211
8089
8216
8112
8200
8155
8161
8196
8123
8231
8123
8237
8160
8199
8183
8161
8237
8121
8278
8105
8285
8088
8236
8107
8209
8153
8162
8186
8113
8173
8092
8152
8099
8121
8134
8078
8166
8052
8194
8050
8190
8077
8159
8119
8110
8175
8075
8211
8065
8228
8079
8209
8111
8162
8137
8129
8197
8136
8211
8153
8218
8198
8185
8226
8123
8259
8093
8276
8087
8245
8113
8231
8161
8177
8196
8130
8219
8102
8208
8106
8158
8109
8116
8143
8070
8157
8057
8158
8072
8131
8107
8100
8168
8065
8206
8046
8237
8052
8213
8079
8185
8122
8141
8145
8098
8162
8099
8180
8138
8179
8201
8146
8254
8118
8269
8111
8266
8130
8229
8182
8193
8224
8137
8244
8110
8262
8115
8238
8133
8192
8160
8131
8165
8097
8161
8089
8142
8105
8103
8166
8075
8200
8055
8235
8053
8228
8075
8195
8115
8160
8170
8126
8202
8101
8203
8122
8200
8164
8165
8211
8140
8257
8136
8260
8144
8230
8177
8177
8216
8144
8254
8104
8281
8096
8259
8104
8214
8135
8155
8158
8113
8161
8092
8150
8098
8111
8113
8069
8162
8053
8191
8042
8199
8054
8177
8097
8146
8158
8107
8201
8085
8216
8074
8179
8092
8144
8128
8122
8168
8111
8211
8131
8211
8167
8177
8199
8120
8232
8084
8267
8080
8269
8096
8220
8122
8179
8166
8132
8185
8105
8170
8086
8136
8097
8096
8142
8070
8167
8054
8182
8060
8166
8081
8113
8143
8080
8191
8060
8221
8059
8229
8081
8193
8108
8142
8150
8121
8179
8120
8196
8148
8183
8193
8143
8235
8108
8272
8096
8273
8100
8239
8160
8209
8188
8166
8230
8122
8229
8104
8224
8118
8163
8140
8115
8156
8085
8169
8081
8170
8112
8132
8157
8092
8198
8068
8241
8050
8240
8072
8222
8112
8188
8161
8140
8187
8114
8199
8122
8194
8163
8176
8216
8137
8256
8122
8265
8115
8234
8147
8191
8184
8150
8236
8113
8257
8095
8252
8104
8220
8135
8159
8147
8116
8161
8092
8151
8100
8129
8132
8103
8186
8067
8214
8049
8245
8070
8215
8095
8179
8149
8128
8179
8091
8204
8095
8186
8107
8164
8148
8132
8198
8120
8238
8122
8220
8154
8188
8184
8148
8228
8109
8270
8087
8272
8093
8239
8114
8195
8155
8146
8183
8112
8174
8100
8154
8121
8114
8151
8084
8198
8064
8215
8070
8209
8091
8168
8146
8136
8191
8090
8221
8089
8237
8095
8204
8126
8155
8163
8139
8205
8140
8221
8144
8195
8181
8157
8220
8106
8254
8084
8271
8086
8242
8099
8196
8151
8162
8196
8114
8209
8100
8177
8108
8150
8130
8111
8160
8080
8180
8079
8192
8092
8165
8143
8117
8185
8079
8230
8075
8265
8098
8251
8110
8188
8138
8138
8181
8118
8182
8107
8186
8161
8178
8210
8120
8224
8089
8250
8089
8261
8112
8213
8169
8173
8205
8122
8231
8094
8233
8098
8196
8122
8150
8148
8113
8168
8092
8171
8103
8164
8138
8120
8190
8094
8221
8057
8251
8062
8229
8081
8197
8129
8171
8172
8124
8198
8109
8189
8125
8171
8162
8144
8208
8125
8245
8115
8234
8117
8201
8154
8166
8200
8120
8242
8090
8255
8086
8241
8104
8196
8132
8134
8150
8099
8167
8097
8149
8111
8125
8147
8081
8190
8061
8235
8056
8216
8058
8178
8107
8154
8167
8111
8206
8092
8207
8083
8174
8116
8149
8150
8121
8180
8108
8214
8117
8198
8163
8164
8198
8109
8235
8079
8268
8077
8253
8090
8215
8122
8169
8164
8120
8188
8102
8177
8102
8140
8129
8102
8163
8075
8206
8065
8206
8076
8186
8119
8155
8177
8116
8225
8089
8251
8087
8238
8101
8206
8142
8153
8185
8128
8189
8125
8188
8145
8175
8188
8121
8219
8087
8254
8071
8260
8089
8225
8128
8181
8173
8146
8208
8102
8217
8106
8199
8126
8156
8152
8111
8162
8073
8166
8083
8176
8119
8149
8166
8102
8213
8069
8245
8067
8252
8096
8226
8123
8178
8167
8136
8198
8130
8206
8134
8194
8175
8149
8226
8129
8259
8104
8261
8104
8232
8155
8207
8201
8151
8217
8094
8228
8082
8234
8103
8194
8128
8134
8152
8100
8155
8084
8152
8102
8127
8154
8089
8192
8064
8237
8048
8237
8072
8224
8107
8181
8165
8138
8193
8103
8201
8096
8182
8124
8155
8165
8125
8208
8111
8220
8106
8208
8127
8171
8171
8120
8219
8095
8257
8074
8258
8091
8227
8119
8180
8148
8127
8158
8094
8167
8106
8145
8124
8116
8178
8076
8208
8069
8236
8071
8204
8095
8176
8159
8141
8200
8100
8223
8088
8225
8102
8194
8135
8150
8166
8121
8203
8122
8202
8138
8181
8180
8130
8221
8091
8254
8082
8271
8083
8242
8113
8204
8164
8158
8185
8108
8193
8104
8176
8118
8141
8145
8094
8172
8070
8195
8068
8185
8096
8163
8144
8112
8193
8091
8252
8088
8263
8093
8230
8115
8180
8140
8124
8176
8105
8174
8122
8180
8160
8153
8213
8108
8245
8081
8258
8085
8245
8117
8194
8142
8141
8189
8112
8227
8101
8236
8109
8190
8129
8141
8164
8108
8188
8102
8200
8125
8184
8170
8148
8221
8108
8260
8083
8272
8092
8256
8114
8213
8160
8169
8183
8123
8196
8124
8183
8130
8164
8180
8126
8207
8094
8236
8089
8218
8097
8188
8154
8150
8195
8099
8218
8074
8233
8078
8213
8103
8161
8121
8115
8153
8090
8163
8096
8143
8117
8114
8163
8073
8211
8054
8237
8058
8227
8084
8200
8127
8160
8185
8119
8204
8097
8200
8100
8176
8124
8139
8167
8115
8194
8102
8213
8116
8191
8158
8158
8206
8109
8245
8077
8258
8066
8243
8091
8207
8134
8169
8170
8114
8173
8104
8167
8113
8139
8154
8103
8199
8086
8231
8071
8218
8086
8190
8121
8156
8188
8118
8227
8096
8244
8086
8218
8108
8179
8137
8132
8159
8122
8191
8126
8196
8149
8161
8195
8108
8231
8079
8264
8079
8260
8088
8219
8130
8173
8176
8123
8194
8100
8203
8094
8161
8120
8126
8156
8098
8186
8078
8195
8096
8189
8127
8152
8180
8107
8227
8079
8257
8078
8252
8099
8216
8124
8166
8171
8136
8195
8109
8197
8136
8184
8195
8140
8225
8098
8255
8087
8253
8098
8230
8145
8176
8180
8144
8220
8093
8222
8092
8221
8103
8161
8119
8124
8158
8104
8169
8091
8159
8116
8137
8170
8098
8211
8073
8248
8068
8253
8080
8216
8110
8182
8166
8136
8191
8109
8202
8113
8177
8146
8152
8191
8124
8235
8104
8231
8101
8215
8141
8169
8182
8125
8225
8092
8257
8086
8250
8093
8210
8118
8147
8138
8112
8163
8097
8165
8105
8141
8133
8107
8191
8081
8241
8064
8243
8073
8214
8109
8181
8161
8147
8210
8111
8228
8102
8230
8126
8197
8157
8153
8198
8132
8239
8129
8213
8146
8187
8190
8144
8235
8099
8276
8096
8272
8087
8235
8115
8192
8159
8137
8173
8095
8169
8094
8158
8113
8121
8152
8091
8182
8073
8216
8086
8203
8108
8178
8164
8138
8207
8098
8232
8075
8240
8081
8203
8111
8154
8153
8129
8181
8115
8176
8123
8155
8164
8125
8197
8087
8239
8063
8253
8078
8225
8097
8189
8153
8147
8187
8099
8205
8085
8184
8095
8157
8123
8117
8159
8095
8177
8088
8188
8109
8167
8155
8110
8198
8083
8236
8067
8265
8085
8251
8114
8192
8157
8143
8181
8129
8196
8126
8197
8153
8180
8202
8118
8236
8096
8240
8087
8222
8111
8191
8161
8154
8207
8109
8229
8085
8237
8091
8204
8102
8142
8126
8097
8151
8098
8173
8102
8163
8142
8133
8200
8098
8225
8052
8240
8060
8225
8090
8202
8150
8165
8182
8110
8193
8090
8178
8098
8146
8132
8134
8192
8108
8221
8104
8209
8113
8174
8151
8145
8207
8111
8248
8082
8263
8086
8240
8096
8198
8135
8137
8154
8104
8172
8103
8163
8121
8130
8154
8094
8209
8074
8233
8074
8223
8092
8198
8147
8164
8201
8117
8232
8105
8239
8093
8208
8114
8168
8157
8141
8205
8128
8214
8133
8195
8161
8150
8199
8102
8237
8085
8273
8082
8253
8095
8214
8145
8172
8175
8118
8191
8097
8184
8111
8159
8126
8116
8162
8088
8191
8075
8211
8100
8190
8156
8166
8207
8120
8245
8092
8271
8080
8244
8101
8195
8119
8140
8161
8117
8203
8123
8185
8134
8151
8175
8102
8205
8075
8245
8077
8249
8104
8219
8138
8161
8175
8112
8207
8097
8225
8092
8179
8104
8154
8140
8102
8159
8088
8170
8093
8172
8125
8132
8178
8091
8216
8067
8256
8069
8254
8092
8217
8119
8168
8157
8122
8187
8111
8181
8123
8182
8165
8150
8199
8108
8232
8094
8235
8109
8211
8146
8173
8192
8124
8227
8089
8251
8085
8238
8094
8190
8114
8135
8150
8105
8157
8097
8163
8115
8134
8152
8111
8203
8076
8234
8065
8250
8081
8215
8117
8170
8169
8125
8197
8090
8206
8095
8208
8125
8166
8168
8142
8205
8115
8208
8107
8191
8136
8166
8184
8117
8232
8101
8263
8078
8258
8090
8227
8122
8175
8167
8134
8189
8104
8166
8096
8140
8120
8109
8164
8086
8205
8064
8218
8081
8200
8112
8169
8173
8120
8216
8092
8233
8079
8230
8093
8193
8127
8148
8166
8131
8185
8130
8204
8137
8172
8185
8121
8213
8083
8249
8071
8263
8091
8239
8119
8189
8167
8143
8198
8105
8201
8093
8176
8107
8146
8143
8114
8180
8095
8206
8100
8197
8119
8161
8174
8115
8210
8085
8255
8078
8261
8086
8222
8112
8181
8159
8140
8189
8122
8188
8132
8189
8160
8151
8206
8114
8238
8082
8248
8094
8235
8121
8197
8175
8161
8221
8115
8234
8092
8225
8094
8174
8108
8133
8146
8113
8174
8090
8164
8101
8138
8152
8109
8190
8071
8244
8062
8256
8072
8234
8113
8204
8158
8157
8185
8122
8207
8112
8205
8139
8174
8181
8134
8211
8108
8220
8099
8218
8124
8185
8177
8149
8214
8092
8241
8080
8251
8082
8220
8101
8181
8129
8122
8159
8099
8161
8102
8155
8136
8132
8186
8097
8222
8070
8242
8070
8224
8099
8196
8153
8159
8201
8104
8214
8085
8208
8095
8191
8125
8157
8168
8123
8205
8115
8198
8126
8183
8167
8129
8200
8091
8252
8075
8266
8079
8239
8100
8206
8151
8161
8180
8115
8193
8102
8169
8107
8141
8149
8113
8197
8087
8212
8081
8205
8097
8184
8152
8147
8199
8095
8235
8092
8257
8088
8234
8105
8189
8143
8144
8188
8128
8210
8135
8188
8167
8149
8194
8107
8242
8089
8259
8081
8256
8100
8207
8146
8166
8189
8110
8201
8079
8183
8077
8169
8120
8135
8149
8102
8171
8086
8187
8100
8175
8143
8129
8186
8097
8238
8079
8268
8082
8259
8104
8211
8126
8145
8150
8108
8173
8104
8174
8125
8163
8163
8127
8209
8092
8235
8090
8236
8112
8216
8165
8176
8205
8120
8220
8077
8233
8074
8201
8087
8153
8119
8119
8149
8092
8158
8100
8155
8128
8131
8171
8092
8209
8068
8251
8071
8250
8086
8216
8145
8179
8182
8123
8197
8097
8198
8090
8170
8131
8159
8175
8130
8208
8108
8215
8111
8193
8151
8160
8200
8117
8236
8086
8263
8075
8248
8088
8206
8118
8146
8146
8112
8158
8089
8155
8105
8140
8144
8108
8192
8091
8227
8076
8228
8091
8208
8121
8167
8179
8120
8220
8094
8225
8081
8215
8113
8187
8142
8153
8191
8137
8210
8126
8197
8139
8169
8189
8117
8231
8091
8267
8076
8260
8096
8223
8123
8186
8164
8124
8190
8095
8196
8095
8165
8118
8139
8154
8104
8197
8091
8215
8092
8187
8121
8157
8184
8119
8219
8086
8252
8076
8249
8084
8209
8119
8175
8164
8137
8201
8130
8200
8138
8187
8180
8145
8219
8096
8246
8083
8251
8094
8227
8121
8191
8166
8141
8206
8097
8224
8087
8206
8099
8166
8124
8125
8141
8084
8159
8088
8182
8114
8152
8160
8101
8208
8073
8245
8055
8253
8086
8236
8115
8182
8133
8130
8177
8106
8181
8110
8177
8142
8160
8197
8128
8229
8100
8235
8098
8214
8129
8187
8181
8142
8222
8092
8251
8074
8243
8081
8203
8108
8166
8144
8114
8162
8097
8166
8117
8155
8148
8118
8190
8088
8239
8066
8246
8075
8228
8103
8195
8165
8154
8189
8104
8215
8097
8226
8113
8195
8149
8150
8201
8129
8223
8118
8212
8128
8182
8176
8141
8228
8101
8257
8082
8266
8078
8232
8109
8189
8135
8131
8170
8104
8172
8100
8158
8118
8125
8147
8091
8197
8078
8222
8085
8218
8110
8187
8160
8146
8204
8102
8233
8074
8230
8076
8204
8119
8174
8163
8148
8199
8134
8216
8148
8197
8182
8162
8209
8107
8257
8098
8287
8093
8246
8105
8202
8146
8154
8175
8096
8190
8077
8180
8086
8144
8114
8107
8148
8088
8171
8081
8190
8099
8167
8148
8124
8198
8088
8227
8071
8250
8070
8228
8094
8188
8135
8165
8186
8134
8212
8142
8208
8159
8185
8207
8144
8248
8118
8268
8106
8245
8114
8204
8153
8167
8198
8108
8220
8077
8227
8074
8174
8095
8139
8118
8099
8148
8085
8164
8097
8153
8126
8120
8178
8083
8209
8060
8245
8057
8227
8084
8208
8138
8155
8177
8125
8213
8115
8230
8134
8202
8172
8169
8215
8140
8244
8119
8251
8138
8220
8184
8174
8209
8111
8244
8084
8251
8074
8234
8076
8178
8111
8127
8138
8095
8149
8087
8158
8108
8126
8139
8080
8167
8050
8221
8046
8202
8069
8189
8113
8152
8168
8099
8199
8088
8239
8104
8235
8142
8214
8191
8157
8212
8138
8234
8143
8220
8174
8181
8204
8117
8237
8093
8272
8084
8259
8091
8214
8120
8166
8154
8102
8156
8075
8155
8077
8136
8109
8107
8150
8081
8180
8066
8199
8077
8181
8112
8140
8164
8097
8209
8071
8242
8070
8235
8097
8217
8142
8183
8202
8159
8240
8152
8218
8162
8201
8209
8150
8240
8121
8286
8105
8275
8107
8236
8145
8189
8173
8140
8199
8091
8198
8069
8160
8082
8131
8117
8095
8149
8075
8166
8081
8171
8105
8130
8161
8093
8203
8067
8249
8061
8253
8073
8214
8110
8178
8164
8148
8210
8145
8236
8152
8219
8191
8187
8221
8136
8253
8113
8260
8114
8238
8154
8194
8189
8141
8227
8091
8233
8070
8224
8073
8168
8093
8122
8122
8086
8146
8077
8148
8101
8135
8140
8098
8179
8062
8215
8053
8236
8064
8210
8105
8184
8147
8125
8183
8106
8218
8105
8229
8146
8208
8196
8163
8232
8135
8247
8133
8226
8146
8204
8205
8161
8240
8109
8269
8086
8263
8064
8204
8085
8166
8119
8105
8140
8085
8151
8080
8134
8109
8112
8151
8074
8183
8054
8205
8058
8207
8099
8170
8148
8134
8187
8090
8211
8080
8233
8103
8217
8144
8198
8202
8169
8239
8149
8241
8161
8215
8200
8169
8239
8133
8276
8095
8279
8090
8243
8103
8191
8145
8152
8170
8089
8178
8075
8154
8081
8133
8123
8106
8163
8079
8175
8070
8190
8096
8163
8145
8118
8197
8089
8229
8062
8244
8071
8226
8114
8208
8150
8176
8212
8152
8235
8156
8218
8183
8184
8211
8122
8241
8088
8267
8102
8250
8122
8207
8155
8152
8183
8094
8204
8071
8202
8065
8156
8086
8116
8113
8085
8146
8067
8145
8084
8140
8130
8107
8180
8078
8218
8051
8245
8064
8228
8083
8191
8126
8161
8183
8131
8217
8132
8229
8154
8210
8196
8162
8223
8126
8251
8120
8243
8135
8221
8175
8177
8210
8113
8235
8076
8248
8065
8204
8080
8156
8109
8111
8130
8083
8146
8085
8142
8115
8121
8148
8085
8199
8067
8232
8055
8227
8085
8196
8126
8158
8167
8107
8208
8102
8241
8113
8235
8157
8201
8207
8155
8230
8134
8231
8135
8214
8185
8181
8228
8130
8263
8098
8276
8081
8253
8091
8204
8116
8141
8142
8098
8148
8075
8156
8103
8147
8136
8105
8160
8066
8186
8057
8198
8082
8195
8139
8154
8183
8110
8216
8082
8242
8080
8240
8112
8207
8176
8186
8210
8148
8233
8141
8217
8171
8183
8206
8134
8254
8109
8278
8091
8261
8096
8220
8120
8170
8160
8111
8175
8073
8173
8063
8146
8086
8122
8126
8090
8157
8076
8184
8086
8175
8117
8124
8166
8090
8213
8066
8246
8059
8242
8076
8207
8122
8187
8179
8155
8219
8147
8242
8158
8207
8197
8173
8232
8124
8262
8107
8265
8118
8234
8147
8185
8186
8128
8208
8077
8208
8058
8187
8071
8145
8099
8112
8130
8084
8152
8084
8159
8102
8123
8160
8095
8196
8063
8232
8047
8241
8074
8213
8106
8166
8155
8144
8209
8120
8237
8128
8235
8171
8202
8208
8154
8236
8121
8246
8129
8230
8164
8195
8196
8129
8229
8096
8259
8073
8249
8065
8194
8084
8138
8122
8104
8145
8084
8149
8091
8132
8119
8103
8170
8067
8205
8064
8228
8075
8213
8102
8171
8156
8121
8195
8096
8222
8094
8242
8125
8219
8165
8191
8218
8156
8241
8143
8219
8151
8192
8195
8140
8236
8111
8270
8085
8274
8082
8226
8101
8179
8130
8119
8167
8082
8157
8081
8147
8095
8129
8140
8094
8173
8069
8199
8066
8189
8090
8160
8154
8117
8204
8079
8224
8061
8237
8085
8227
8125
8204
8191
8180
8233
8156
8235
8154
8209
8191
8173
8232
8134
8271
8110
8275
8105
8244
8117
8197
8156
8143
8176
8085
8183
8059
8177
8068
8143
8095
8108
8140
8091
8168
8082
8175
8099
8133
8129
8103
8188
8070
8220
8054
8248
8062
8214
8087
8185
8135
8141
8191
8144
8236
8148
8234
8164
8194
8203
8145
8235
8117
8257
8113
8241
8126
8202
8171
8151
8202
8099
8225
8070
8225
8058
8188
8079
8141
8111
8100
8143
8084
8160
8092
8137
8118
8106
8174
8073
8215
8059
8247
8059
8229
8097
8195
8141
8154
8182
8124
8222
8114
8247
8131
8224
8193
8198
8217
8149
8242
8130
8233
8144
8209
8183
8169
8220
8107
8245
8071
8250
8063
8215
8070
8166
8096
8117
8126
8076
8142
8075
8141
8098
8120
8138
8088
8190
8065
8205
8064
8209
8082
8190
8136
8147
8183
8098
8206
8080
8245
8102
8244
8137
8213
8191
8186
8219
8156
8242
8156
8220
8184
8186
8227
8134
8261
8093
8265
8080
8246
8085
8203
8119
8155
8150
8096
8169
8068
8162
8074
8145
8103
8105
8135
8086
8172
8073
8188
8087
8170
8125
8142
8186
8089
8215
8066
8242
8056
8237
8089
8220
8147
8195
8201
8163
8222
8146
8228
8159
8196
8196
8149
8246
8115
8264
8104
8260
8106
8218
8147
8176
8182
8115
8205
8071
8198
8062
8170
8070
8125
8102
8096
8140
8083
8161
8085
8150
8114
8129
8170
8098
8207
8064
8244
8059
8246
8072
8200
8112
8183
8184
8140
8217
8142
8245
8153
8222
8171
8172
8204
8140
8248
8129
8258
8133
8235
8167
8192
8200
8118
8217
8082
8246
8063
8226
8065
8179
8091
8130
8124
8097
8158
8094
8157
8106
8142
8142
8096
8184
8069
8230
8065
8242
8085
8217
8112
8181
8162
8137
8207
8105
8242
8116
8253
8152
8221
8191
8171
8231
8153
8248
8144
8228
8173
8203
8211
8154
8243
8102
8269
8076
8259
8078
8216
8093
8161
8129
8106
8151
8085
8161
8092
8151
8115
8119
8149
8088
8199
8066
8195
8066
8181
8100
8159
8157
8113
8199
8077
8224
8072
8247
8100
8226
8151
8210
8211
8188
8238
8139
8221
8145
8180
8177
8136
8217
8100
8253
8080
8261
8080
8221
8101
8179
8141
8109
8164
8073
8168
8060
8160
8078
8142
8113
8110
8153
8081
8168
8077
8175
8096
8147
8144
8098
8192
8073
8227
8054
8236
8059
8224
8104
8197
8166
8168
8209
8153
8239
8152
8218
8182
8179
8209
8133
8248
8110
8259
8106
8233
8125
8194
8165
8147
8203
8091
8216
8058
8189
8059
8168
8085
8127
8114
8094
8150
8083
8161
8100
8146
8139
8111
8183
8076
8230
8067
8254
8078
8228
8091
8185
8149
8167
8199
8135
8251
8138
8259
8155
8216
8191
8181
8221
8133
8254
8135
8244
8160
8213
8183
8156
8216
8101
8240
8073
8252
8061
8195
8069
8145
8093
8102
8135
8082
8148
8081
8138
8112
8119
8143
8079
8192
8059
8227
8068
8214
8090
8188
8136
8141
8175
8089
8216
8102
8251
8126
8252
8157
8213
8198
8166
8233
8141
8240
8151
8208
8192
8172
8228
8122
8262
8082
8267
8074
8241
8087
8188
8104
8142
8155
8089
8173
8072
8153
8079
8141
8122
8107
8154
8085
8184
8070
8196
8083
8174
8140
8141
8189
8089
8223
8065
8247
8082
8258
8123
8234
8181
8199
8218
8159
8233
8140
8208
8155
8173
8199
8134
8254
8109
8265
8091
8262
8112
8223
8146
8161
8167
8089
8181
8059
8173
8062
8156
8089
8131
8125
8100
8159
8080
8170
8101
8164
8125
8128
8177
8093
8221
8067
8253
8057
8242
8076
8210
8127
8178
8192
8162
8228
8150
8247
8154
8207
8188
8165
8225
8129
8249
8105
8239
8115
8216
8155
8174
8197
8119
8223
8071
8219
8055
8200
8060
8150
8097
8113
8136
8099
8163
8092
8151
8103
8118
8147
8091
8197
8071
8238
8069
8245
8080
8210
8103
8168
8177
8148
8218
8125
8258
8147
8256
8165
8211
8201
8160
8235
8137
8248
8142
8226
8176
8187
8208
8133
8242
8088
8258
8066
8244
8068
8190
8090
8136
8122
8090
8140
8073
8149
8095
8148
8127
8111
8163
8078
8190
8063
8216
8080
8196
8111
8162
8160
8105
8205
8089
8249
8090
8253
8121
8225
8159
8190
8202
8153
8226
8141
8210
8154
8188
8199
8141
8233
8097
8264
8077
8256
8079
8217
8092
8160
8124
8102
8158
8065
8158
8060
8152
8089
8129
8127
8093
8161
8078
8178
8081
8182
8106
8149
8161
8105
8209
8072
8228
8061
8243
8085
8233
8126
8206
8191
8178
8222
8154
8235
8149
8206
8179
8156
8223
8128
8257
8109
8261
8098
8227
8119
8182
8157
8111
8183
8077
8196
8047
8180
8059
8145
8090
8116
8136
8097
8170
8097
8182
8109
8134
8142
8106
8194
8071
8245
8060
8248
8066
8222
8097
8189
8169
8168
8214
8140
8245
8146
8238
8153
8201
8200
8159
8240
8129
8258
8125
8234
8151
8194
8179
8138
8205
8086
8227
8053
8223
8055
8191
8075
8136
8108
8109
8145
8095
8157
8103
8156
8131
8114
8172
8084
8210
8067
8245
8081
8223
8102
8187
8149
8149
8206
8114
8228
8113
8257
8138
8249
8186
8202
8213
8154
8235
8133
8221
8148
8205
8191
8173
8238
8111
8257
8071
8251
8057
8208
8070
8166
8102
8107
8131
8078
8154
8076
8150
8094
8121
8129
8101
8173
8071
8201
8068
8192
8093
8177
8148
8137
8185
8089
8225
8078
8261
8095
8249
8135
8221
8195
8187
8219
8151
8233
8145
8211
8180
8172
8226
8129
8255
8093
8257
8075
8236
8096
8200
8138
8149
8168
8085
8174
8054
8168
8071
8157
8100
8121
8133
8092
8165
8079
8184
8098
8170
8149
8133
8190
8090
8225
8052
8238
8065
8234
8104
8211
8160
8182
8197
8144
8222
8138
8215
8153
8189
8198
8150
8243
8116
8258
8105
8241
8117
8208
8165
8164
8192
8094
8206
8057
8213
8053
8175
8076
8141
8105
8107
8140
8089
8156
8094
8149
8121
8123
8165
8085
8213
8062
8242
8063
8226
8080
8198
8126
8178
8185
8149
8231
8129
8256
8144
8237
8166
8186
8207
8148
8244
8132
8246
8142
8214
8171
8171
8199
8106
8236
8069
8243
8050
8221
8063
8173
8094
8116
8132
8091
8151
8089
8161
8114
8138
8153
8115
8196
8081
8227
8073
8219
8082
8191
8113
8144
8165
8106
8214
8094
8253
8110
8254
8136
8224
8193
8186
8220
8148
8241
8149
8214
8175
8188
8213
8130
8237
8087
8262
8073
8244
8074
8203
8091
8148
8126
8093
8149
8065
8160
8076
8148
8113
8131
8157
8106
8188
8080
8202
8094
8183
8110
8138
8168
8102
8219
8070
8249
8080
8259
8103
8230
8152
8206
8215
8166
8236
8147
8228
8158
8197
8197
8152
8235
8126
8265
8092
8261
8103
8221
8122
8173
8165
8112
8187
8070
8192
8056
8165
8065
8133
8092
8100
8139
8083
8161
8088
8156
8125
8150
8165
8095
8207
8067
8239
8051
8250
8076
8218
8124
8197
8182
8164
8220
8139
8235
8146
8215
8168
8183
8209
8143
8250
8118
8249
8117
8229
8155
8184
8180
8124
8211
8071
8214
8039
8185
8043
8157
8073
8115
8110
8095
8146
8088
8151
8095
8136
8131
8104
8187
8081
8229
8060
8240
8071
8210
8104
8180
8167
8155
8211
8121
8258
8130
8265
8150
8224
8185
8171
8218
8141
8239
8129
8224
8165
8189
8194
8147
8222
8085
8252
8064
8243
8060
8207
8082
8159
8114
8096
8139
8081
8159
8084
8147
8113
8117
8149
8084
8188
8074
8217
8082
8208
8112
8173
8159
8113
8203
8093
8253
8086
8260
8115
8250
8156
8214
8195
8167
8219
8144
8234
8158
8204
8193
8164
8224
8119
8261
8078
8258
8071
8224
8092
8174
8121
8109
8155
8072
8173
8057
8167
8086
8146
8113
8110
8155
8084
8177
8079
8188
8106
8157
8151
8118
8208
8081
8228
8065
8254
8089
8252
8123
8223
8185
8187
8221
8155
8236
8148
8214
8184
8180
8212
8143
8253
8111
8264
8097
8238
8123
8189
8152
8138
8185
8074
8198
8054
8202
8057
8168
8080
8129
8125
8102
8149
8089
8156
8097
8138
8131
8114
8201
8102
8256
8083
8260
8071
8226
8093
8199
8146
8169
8210
8148
8258
8145
8250
8147
8209
8169
8163
8217
8139
8253
8133
8235
8139
8203
8170
8152
8204
8103
8229
8053
8229
8041
8184
8049
8141
8093
8100
8125
8079
8144
8079
8141
8109
8120
8147
8082
8195
8066
8235
8071
8224
8098
8204
8141
8149
8196
8117
8233
8105
8260
8122
8253
8151
8208
8203
8163
8232
8144
8234
8146
8209
8176
8160
8208
8110
8234
8071
8253
8066
8228
8067
8181
8095
8120
8126
8077
8152
8074
8158
8094
8142
8124
8114
8162
8080
8182
8078
8207
8095
8185
8144
8142
8182
8096
8230
8082
8263
8093
8265
8127
8234
8180
8197
8226
8174
8249
8165
8224
8175
8185
8202
8138
8261
8108
8266
8089
8252
8094
8199
8116
8146
8149
8079
8167
8054
8169
8059
8157
8084
8134
8127
8105
8152
8078
8168
8092
8163
8129
8144
8181
8096
8215
8065
8246
8060
8250
8091
8221
8138
8196
8201
8173
8228
8145
8245
8154
8206
8186
8162
8223
8135
8259
8120
8257
8111
8209
8138
8155
8160
8088
8192
8055
8207
8038
8195
8055
8150
8087
8108
8125
8089
8150
8089
8155
8110
8134
8151
8102
8203
8075
8239
8063
8234
8071
8219
8121
8192
8180
8162
8235
8136
8258
8145
8248
8163
8212
8206
8160
8231
8135
8251
8136
8216
8160
8175
8187
8117
8219
8070
8225
8047
8213
8043
8174
8070
8123
8104
8089
8142
8077
8149
8084
8134
8119
8115
8168
8086
8228
8079
8226
8108
8230
8126
8165
8168
8141
8242
8126
8276
8123
8273
8134
8247
8177
8196
8206
8164
8256
8183
8272
8201
8209
8193
8130
8211
8080
8251
8061
8237
8053
8199
8081
8149
8102
8094
8136
8062
8162
8068
8158
8093
8132
8128
8102
8169
8088
8192
8089
8188
8119
8166
8175
8114
8208
8073
8255
8087
8261
8087
8227
8130
8205
8187
8183
8221
8149
8237
8145
8199
8179
8159
8210
8115
8242
8088
8248
8085
8211
8107
8177
8144
8112
8174
8066
8186
8044
8178
8064
8158
8100
8124
8142
8098
8165
8094
8169
8109
8164
8161
8121
8205
8088
8242
8066
8246
8068
8234
8102
8209
8172
8172
8206
8146
8242
8141
8229
8148
8188
8184
8137
8214
8115
8243
8111
8228
8138
8208
8188
8155
8204
8072
8200
8032
8178
8023
8153
8049
8112
8094
8099
8135
8084
8173
8141
8220
8194
8179
8217
8124
8246
8087
8248
8067
8209
8082
8183
8155
8163
8214
8156
8268
8132
8273
8155
8255
8185
8212
8218
8157
8244
8143
8245
8168
8216
8194
8164
8226
8103
8237
8060
8235
8027
8192
8054
8152
8088
8100
8126
8082
8155
8067
8131
8060
8090
8099
8086
8184
8087
8184
8052
8189
8087
8173
8137
8136
8207
8141
8286
8114
8271
8092
8224
8113
8197
8161
8185
8216
8144
8220
8136
8198
8175
8179
8218
8129
8256
8097
8262
8073
8226
8076
8172
8096
8120
8134
8081
8167
8062
8173
8072
8157
8109
8133
8151
8083
8137
8037
8122
8041
8102
8068
8064
8101
8018
8149
8014
8222
8076
8297
8186
8328
8254
8275
8272
8204
8267
8196
8300
8252
8282
8281
8252
8317
8177
8299
8138
8271
8128
8223
8165
8173
8177
8069
8165
8011
8139
7999
8125
8023
8101
8067
8085
8134
8079
8137
8071
8136
8096
8114
8191
8139
8256
8086
8276
8104
8280
8087
8172
8055
8092
8112
8112
8220
8126
8232
8127
8217
8168
8219
8291
8290
8362
8240
8305
8180
8253
8210
8220
8235
8156
8238
8083
8244
8046
8214
8056
8184
8106
8141
8139
8108
8156
8087
8150
8088
8113
8115
8083
8152
8045
8169
8019
8155
8014
8112
8030
8078
8096
8046
8139
8035
8164
8018
8120
8029
8147
8156
8197
8209
8115
8161
8078
8141
8109
8156
8204
8188
8279
8081
8218
8065
8286
8134
8293
8192
8235
8203
8177
8238
8159
8240
8129
8206
8158
8188
8207
8144
8248
8133
8248
8116
8217
8145
8165
8167
8107
8223
8101
8263
8089
8272
8106
8236
8140
8191
8179
8136
8194
8124
8183
8122
8159
8145
8103
8173
8047
8159
8008
8184
8047
8221
8145
8187
8145
8093
8163
8063
8210
8113
8269
8138
8201
8151
8133
8144
8069
8147
8084
8188
8147
8200
8224
8180
8294
8156
8327
8158
8355
8152
8283
8155
8213
8169
8142
8168
8077
8150
8051
8105
8042
8047
8068
8025
8110
8032
8211
8120
8296
8237
8247
8169
8075
8150
8004
8117
7946
8098
7997
8150
8073
8130
8123
8115
8203
8210
8332
8208
8136
8093
8086
8201
8112
8277
8109
8287
8169
8356
8218
8290
8242
8238
8315
8241
8330
8171
8277
8157
8206
8156
8158
8210
8138
8210
8102
8176
8091
8121
8107
8064
8131
7996
8135
7971
8146
7973
8120
8003
8081
8032
8038
8067
8015
8102
8046
8117
8074
8098
8133
8074
8176
8075
8222
8088
8241
8189
8311
8283
8253
8324
8203
8326
8161
8331
8206
8332
8223
8288
8269
8243
8280
8225
8301
8215
8253
8224
8211
8277
8148
8258
8048
8208
8037
8212
8073
8172
8110
8147
8189
8101
8154
8018
8117
8039
8086
8029
8009
8036
7988
8088
8013
8078
7923
7923
7857
7830
7961
7955
8198
8102
8283
8096
8269
8204
8383
8301
8289
8348
8317
8346
8249
8284
8225
8279
8332
8300
8402
8264
8341
8120
8270
8152
8235
8206
8259
8314
8199
8284
8123
8252
8102
8250
8190
8273
8217
8131
8150
8084
8166
8101
8148
8110
8098
8134
8041
8180
8023
8221
8057
8266
8114
8251
8204
8224
8208
8137
8187
8074
8167
8085
8149
8108
8075
8102
8005
8066
7942
8055
7962
8041
7991
7974
8042
8016
8182
8059
8281
8135
8250
8055
8162
8128
8184
8196
8133
8173
8107
8197
8188
8229
8270
8203
8271
8106
8248
8066
8211
8070
8188
8139
8188
8236
8182
8280
8158
8287
8132
8246
8121
8164
8122
8047
8024
7901
7961
7888
7971
7974
8003
8073
8061
8261
8166
8373
8102
8237
8060
8151
8041
8113
8115
8063
8103
8042
8167
8133
8255
8338
8464
8550
8458
8518
8353
8452
8303
8347
8231
8192
8182
8081
8173
8047
8220
8080
8250
8103
8210
8162
8216
8207
8143
8176
8117
8212
8189
8216
8222
8149
8214
8028
8109
7914
8039
7892
8004
7929
7985
7992
7992
8124
8141
8377
8246
8288
8184
8207
8143
8097
8144
8068
8130
8020
8079
8023
8037
8056
8006
8098
7955
8140
8037
8268
8115
8266
8167
8233
8243
8239
8302
8234
8280
8161
8200
8126
8090
8138
8118
8263
8077
8159
8001
8093
7940
7917
7933
7974
8022
7889
8141
8175
8457
8325
8405
8355
8421
8414
8303
8294
8184
8267
8203
8235
8247
8234
8355
8218
8340
8162
8369
8219
8354
8226
8295
8245
8211
8225
8100
8182
8050
8130
8050
8105
8073
8036
8082
8044
8177
8084
8140
8025
8054
8090
8120
8317
8131
8210
8047
8283
8100
8194
8045
8095
8086
8156
8260
8160
8142
7992
8033
8026
8017
8054
7964
8066
7964
8160
8072
8288
8230
8308
8268
8188
8173
8014
8138
8040
8223
8090
8213
8111
8098
8042
7953
7989
7950
8090
8126
8264
8255
8170
8232
8135
8270
8033
8170
8026
8243
8227
8433
8452
8430
8387
8211
8196
8017
8085
8047
8169
8228
8259
8340
8255
8406
8287
8331
8227
8305
8294
8244
8268
8105
8192
8010
8169
8038
8229
8143
8253
8266
8299
8334
8275
8303
8170
8168
8099
8035
8019
7898
7952
7778
7923
7819
8008
7945
8056
8076
8158
8146
8024
8101
7891
7964
7811
7862
7768
7869
8013
8006
8057
8050
8323
8490
8627
8532
8386
8390
8262
8390
8251
8388
8191
8363
8207
8301
8231
8256
8304
8280
8350
8277
8410
8363
8381
8390
8395
8444
8292
8333
8163
8269
8148
8219
8175
8152
8211
8148
8277
8067
8255
8127
8251
8088
8168
8121
8111
8116
8037
8083
8021
8107
8120
8149
8184
8077
8161
8004
8139
7979
8147
8016
8104
8035
8042
8054
7975
8054
7933
8049
7947
8023
7966
8090
8196
8113
8101
8006
8116
8064
8158
8158
8169
8237
8089
8155
7940
8059
7855
7992
7862
8004
7934
7945
7984
8038
8273
8260
8342
8274
8271
8142
7966
7954
7839
7946
7863
8062
7973
8055
8121
8407
8540
8463
8583
8410
8455
8148
8230
8246
8347
8262
8354
8594
8728
8716
8503
8489
8383
8285
8201
8045
8104
7950
8076
7882
8011
7870
8024
8008
8089
8046
7890
7944
7872
8034
8037
8158
8015
8025
8142
8338
8575
8520
8579
8440
8448
8321
8252
8259
8198
8348
8217
8366
8162
8341
8185
8270
8101
8075
8060
8072
8152
8126
8269
8240
8264
8162
7993
7975
7832
8046
8034
8123
7957
8127
8119
8158
8107
7920
7945
7828
7966
7874
8171
8230
8329
8288
8217
8091
7951
8006
7945
8018
8055
8253
8545
8597
8638
8389
8406
8134
8286
8135
8279
8143
8188
8206
8247
8377
8366
8383
8144
8205
8176
8226
8224
8168
8268
8184
8291
8127
8199
8107
8091
8068
7982
8078
7947
8086
7872
7975
7820
7931
7872
7926
7865
7838
7938
7918
8002
7989
8058
8116
8260
8533
8463
8408
8163
8325
8122
8153
8003
8053
8093
8058
8103
8018
8208
8128
8247
8104
8165
8102
8146
8291
8315
8386
8258
8284
8185
8182
8136
8018
8077
7942
8116
8015
8278
8131
8349
8306
8332
8203
8126
8110
7952
7951
7772
7803
7768
7868
8034
8094
8299
8330
8481
8463
8593
8427
8419
8372
8284
8333
8189
8257
7957
8024
7879
8061
7978
8017
8041
8112
8314
8434
8552
8437
8424
8434
8429
8388
8149
8235
8078
8191
7976
8035
7842
7859
7838
7831
7864
7785
8032
8062
8301
8333
8418
8355
8314
8266
8133
8137
8019
8105
8074
8178
8212
8191
8292
8199
8393
8175
8319
8087
8160
8015
8103
8092
8154
8298
8363
8396
8211
8260
8200
8158
8124
8079
8158
8030
8192
8104
8197
8034
8013
7964
7950
7995
7952
8168
8075
8209
8040
8168
7935
7928
7910
7781
7741
7764
7913
7914
8120
8383
8422
8526
8652
8838
8544
8627
8426
8441
8180
8205
8163
8172
8203
8155
8308
8260
8389
8264
8313
8266
8265
8265
8161
8239
8126
8235
8176
8235
8231
8194
8252
8118
8209
7997
8146
7973
8112
7984
8077
8061
8092
8133
8102
8151
8038
8069
7996
8035
8044
7954
8009
7886
8015
7963
8237
8165
8224
8190
8216
8277
8160
8231
8056
8198
8022
8122
8045
8103
8060
8052
8110
8068
8112
8026
8126
8205
8280
8297
8125
8222
8092
8326
8205
8323
8054
8061
7939
7912
7942
7947
8098
8075
8221
8113
8201
8196
8212
8252
8170
8249
8134
8267
8126
8175
8121
8137
8289
8366
8518
8259
8304
8052
8147
7925
7949
7830
7828
7842
7874
8181
8373
8424
8348
8426
8534
8470
8459
8301
8386
8213
8345
8196
8254
8163
8159
8158
8079
8176
8039
8148
8004
8119
8069
8168
8158
8163
8239
8139
8213
8182
8325
8313
8250
8184
7980
7987
7767
7900
7726
7933
7833
7992
7993
8126
8325
8459
8473
8383
8475
8388
8430
8352
8313
8330
8240
8349
8222
8275
8126
8225
8175
8184
8221
8189
8358
8169
8222
7948
8003
7818
7903
7832
7847
7859
7865
7989
8053
8365
8471
8451
8362
8268
8326
8144
8250
7979
8045
7890
8072
8118
8218
8254
8205
8375
8410
8490
8294
8317
8127
8105
8033
8015
8114
8073
8152
8070
8110
8032
8084
8190
8132
8263
8132
8312
8154
8423
8231
8226
8091
8131
8079
8050
8097
7976
8039
7972
8094
8139
8194
8184
7966
7919
7741
7879
7723
7801
7798
7958
8156
8267
8384
8324
8549
8416
8512
8344
8360
8160
8097
8084
8085
8236
8237
8294
8227
8260
8244
8215
8346
8264
8351
8154
8375
8246
8356
8250
8314
8254
8167
8170
8032
8131
8047
8203
8109
8144
8112
8076
8135
8069
8162
8087
8177
8088
8094
8106
8049
8045
7800
7922
7752
7900
7714
7846
7773
8002
8365
8500
8511
8454
8521
8391
8409
8342
8328
8396
8286
8235
7902
7909
7679
7737
7589
7633
7693
7739
7870
7910
8291
8403
8775
8802
8736
8445
8362
8304
8249
8294
8197
8231
8124
8144
8144
8128
8273
8134
8279
8105
8309
8181
8432
8325
8315
8192
8114
8132
8075
8197
8119
8283
8191
8212
8190
8158
8199
8076
8118
8004
8117
8046
8064
8061
8017
8093
8008
8259
8120
8262
8053
8197
8095
8164
8119
8052
7974
7836
7901
7881
7971
7944
7919
8011
8145
8556
8515
8664
8552
8646
8429
8396
8287
8223
8235
8071
8146
8020
8151
8036
8140
8042
8049
8045
8033
8111
8051
8146
8189
8210
8120
8093
8179
8120
8351
8173
8428
8241
8268
8064
8167
8060
7997
7965
7864
7976
8041
8207
8143
8221
8240
8240
8258
8073
8124
7985
8057
7941
7996
7989
8037
8159
8136
8335
8229
8489
8240
8205
8013
8082
8060
8093
8138
8159
8393
8384
8435
8363
8304
8319
8271
8395
8225
8336
8146
8301
8201
8274
8117
8058
8092
8062
8205
8081
8163
8003
8075
7966
7953
7901
7810
7842
7771
7904
7886
8002
8080
8113
8116
8001
8105
7936
8156
8078
8307
8267
8501
8470
8466
8394
8266
8351
8208
8200
8117
8253
8359
8325
8299
8107
8127
7953
8070
7907
7802
7619
7731
8015
8139
8308
8041
8122
8141
8542
8495
8670
8602
8510
8403
8303
8333
8236
8365
8385
8286
8239
8193
8278
8068
8182
8003
8127
7935
7989
7901
7957
8035
8176
8365
8271
8429
8385
8517
8439
8386
8310
8244
8282
8149
8219
8131
8227
8186
8162
8165
8059
8154
7970
8081
7891
8058
7977
8157
8047
8057
8046
8001
8039
7945
8036
7988
8039
8040
8033
8100
8008
8123
8008
8208
8108
8229
8188
8261
8320
8317
8436
8293
8371
8150
8274
8140
8226
8141
8147
8156
8058
8035
7905
7930
7892
7945
8033
8019
8148
8140
8319
8081
8158
7931
8016
7980
8111
8101
8045
8096
8106
8294
8193
8284
8139
8121
8107
8066
8118
8035
8054
7858
7898
7860
7942
8044
8130
8286
8118
8374
8376
8654
8572
8695
8515
8441
8291
8201
8268
8237
8306
8213
8265
8253
8234
8302
8115
8119
7888
7982
7852
7985
7858
7875
7947
8019
8201
8126
8273
8106
8251
8124
8338
8366
8421
8427
8350
8366
8243
8270
8176
8187
8192
8122
8184
8048
8189
7987
8154
8055
8279
8181
8273
8275
8274
8312
8238
8255
8055
8082
8025
8080
8094
8035
8084
8025
8280
8165
8161
8103
8223
8231
8109
8123
7981
8132
8014
8225
8072
8230
8120
8172
8153
8135
8139
8033
8039
7944
7982
7923
7821
7820
7728
7988
7983
8210
8108
8369
8354
8438
8432
8417
8395
8270
8348
8096
8164
8131
8332
8383
8449
8372
8285
8367
8228
8255
8133
8133
8064
7928
7938
7814
7982
7887
8067
7824
7950
7939
8200
8179
8176
8228
8229
8412
8358
8410
8295
8337
8362
8320
8377
8279
8334
8057
8115
8059
8194
8164
8102
8151
8110
8331
8162
8276
8087
8207
8052
8075
7993
7929
7930
7895
7929
7767
7835
7943
8105
8336
8408
8651
8547
8702
8473
8486
8235
8280
8152
8098
8098
8048
8150
8014
8058
7848
7863
7796
7870
7979
8002
8247
8271
8410
8406
8454
8379
8333
8352
8179
8299
8140
8336
8142
8298
8120
8209
8123
8164
8190
8165
8268
8135
8148
8049
8073
8130
8092
8135
8013
8201
8090
8199
8035
8139
8088
8100
8143
8066
8172
8038
8205
8080
8246
8136
8199
8101
8051
8073
8014
8092
8024
8028
7900
7784
7791
7734
7887
7792
7960
7797
8092
8156
8377
8267
8388
8599
8675
8780
8634
8575
8323
8313
8211
8167
8134
8098
8267
8222
8341
8241
8265
8143
8080
8086
8002
8112
7972
8122
7991
8269
8141
8274
8172
8129
8050
7986
8014
7911
7937
7883
7985
8084
8076
8147
8037
8182
8057
8228
8137
8388
8366
8383
8333
8237
8434
8409
8443
8186
8278
8136
8205
8130
8088
8141
8215
8369
8217
8248
8164
8132
8170
8125
8234
8070
8211
8009
8196
8053
8192
8102
8169
8150
8154
8222
8144
8227
8106
8152
8102
8108
8099
7925
7885
7733
7890
7833
7949
7893
7952
8127
8420
8627
8404
8556
8420
8545
8349
8398
8250
8277
8225
8153
8187
8113
8178
8143
8211
8195
8109
8175
8058
8163
7987
8122
7922
7951
7810
7900
7920
7877
7963
7937
8080
7927
8020
7912
8017
8214
8507
8485
8269
8285
8101
8055
7991
8095
8203
8363
8604
8372
8411
8268
8459
8233
8255
8091
8239
8312
8317
8336
8239
8253
8099
8130
8098
8202
8313
8288
8318
8153
8242
8067
8170
8072
8111
8077
8030
8112
8029
8175
7995
8095
7909
7977
7824
7832
7852
7902
8017
7995
8098
8133
8308
8322
8218
8324
8306
8432
8201
8297
8128
8341
8251
8313
8236
8220
8298
8220
8335
8203
8298
8161
8242
8214
8267
8319
8248
8317
8212
8316
8209
8180
8073
7973
8031
7920
8061
7879
8057
7960
8179
8029
8056
8013
8057
8138
8135
8276
8187
8246
8160
8142
8157
8101
8144
7965
8053
7903
8055
7991
8051
8008
8030
8186
8169
8306
8130
8268
8123
8359
8245
8228
8206
8151
8120
8027
8109
8012
8044
8164
8282
8224
8010
8080
7907
8082
7969
8251
8142
8186
8113
8185
8294
8211
8312
8260
8420
8336
8401
8338
8267
8244
8121
8166
8039
8179
8172
8358
8283
8164
8189
8076
8246
8138
8401
8213
8290
8098
8214
8170
8158
8136
8143
8305
8244
8256
8121
8087
8095
8049
8149
8044
8208
8091
8278
8188
8290
8213
8165
8137
8031
8153
8068
8238
8098
8245
8123
8124
8059
8018
8033
7941
8050
8053
8159
8148
8181
8275
8204
8355
8201
8342
8125
8285
8088
8143
8045
8066
8069
8038
8119
8029
8091
7967
8010
7976
8023
8124
8075
8201
8184
8472
8478
8535
8408
8321
8242
8074
8111
7906
8027
7864
7980
7817
7920
7881
7934
7995
7923
7989
8074
8226
8147
8232
8367
8357
8427
8318
8499
8366
8502
8368
8463
8358
8368
8353
8283
8340
8167
8265
8110
8240
8169
8264
8255
8211
8220
8109
8180
8090
8165
8112
8118
8128
8044
8170
8015
8163
7964
8100
7927
8035
7940
8003
8030
8041
8134
8080
8138
7987
7986
7948
7942
8011
7989
8153
8091
8251
8114
8136
7991
7966
7875
7701
7755
7591
7729
7719
8180
8230
8472
8650
8778
8827
8831
8733
8442
8422
8339
8310
8287
8213
8290
8126
8267
8090
8256
8084
8207
8085
8101
8124
8229
8376
8221
8293
8132
8187
8097
8156
8147
8135
8197
8086
8138
8058
8186
8157
8167
8181
8122
8238
8087
8231
8052
8268
8094
8224
8148
8256
8240
8160
8166
8055
8141
8102
8191
8192
8160
8069
7871
7918
7774
7901
7797
7945
7925
8138
8357
8290
8335
8201
8303
8122
8321
8152
8267
8325
8415
8321
8185
8165
8010
8054
8013
8102
8152
8142
8257
8121
8313
8226
8403
8242
8394
8245
8224
8136
8081
8122
8022
8100
8014
8128
8053
8080
8023
7974
8007
7922
8029
7938
8024
8011
8084
8077
8039
8119
7962
8126
8072
8414
8347
8517
8419
8453
8385
8328
8316
8185
8182
8036
8043
8042
8092
8197
8143
8268
8089
8206
8065
8269
8215
8277
8268
8234
8243
8070
8141
7968
8087
7974
8076
8054
8165
8257
8296
8425
8323
8333
8229
8193
8120
8096
8216
8068
8162
7982
8140
7981
8172
8035
8104
8045
8039
8069
8043
8155
8063
8142
8111
8224
8287
8314
8410
8339
8375
8142
8219
8135
8158
8109
8102
8213
8130
8327
8154
8257
8014
8094
7967
8059
8052
8125
8318
8394
8406
8273
8294
8239
8235
8248
8132
8222
8073
8229
8042
8124
7959
8037
8029
8072
8159
8121
8278
8125
8234
8078
8155
8062
8071
8065
8008
8020
7938
8018
7974
8057
8038
8003
8092
8109
8297
8158
8415
8280
8391
8170
8202
8088
8048
7994
7908
7980
7933
8062
8056
8137
8130
8129
8288
8215
8238
8088
