EMG
8280
7596
8126
7671
7875
7770
7658
7833
7514
7849
7502
7786
7620
7649
7769
7519
7906
7446
7951
7470
7906
7623
7786
7822
7644
8032
7541
8156
7518
8187
7624
8125
7790
7997
7980
7896
8127
7901
8206
7999
8170
8176
8041
8338
7882
8443
7780
8431
7772
8312
7859
8117
7995
7864
8082
7665
8087
7573
8006
7605
7875
7746
7728
7893
7619
7963
7610
7944
7701
7838
7876
7696
8079
7579
8227
7538
8270
7597
8214
7763
8083
7956
7953
8124
7893
8215
7931
8222
8085
8140
8283
8033
8444
7952
8484
7931
8393
8004
8217
8134
7997
8272
7811
8317
7668
8250
7644
8087
7718
7900
7840
7749
7950
7694
7968
7731
7897
7855
7747
8038
7609
8185
7539
8256
7586
8213
7723
8087
7929
7938
8124
7831
8243
7826
8257
7917
8201
8101
8115
8314
8039
8429
8031
8429
8093
8276
8211
8078
8350
7885
8463
7764
8442
7705
8282
7747
8067
7830
7835
7932
7700
7969
7688
7944
7783
7813
7932
7678
8077
7576
8172
7590
8148
7699
8047
7878
7876
8094
7752
8245
7711
8304
7764
8233
7898
8133
8108
8045
8290
8026
8352
8101
8296
8228
8143
8352
7945
8473
7809
8494
7758
8412
7815
8208
7897
7950
8011
7745
8048
7652
8019
7687
7922
7818
7783
7957
7648
8051
7618
8069
7693
7988
7847
7822
8065
7682
8222
7608
8309
7636
8278
7776
8173
7964
8049
8133
7963
8249
7993
8278
8139
8210
8310
8077
8462
7931
8515
7868
8461
7894
8295
8026
8084
8142
7829
8202
7675
8176
7625
8052
7704
7907
7856
7765
7971
7685
8011
7706
7954
7820
7814
8017
7674
8186
7576
8293
7570
8282
7695
8198
7882
8062
8086
7935
8215
7897
8279
7985
8234
8154
8130
8341
8025
8461
7970
8458
7979
8322
8094
8131
8246
7913
8352
7753
8358
7649
8240
7672
8046
7771
7867
7902
7734
7977
7708
7954
7775
7845
7932
7700
8110
7592
8233
7570
8236
7652
8159
7816
8002
8034
7863
8202
7784
8276
7815
8248
7944
8170
8152
8074
8320
8032
8405
8059
8344
8156
8183
8277
7977
8421
7802
8471
7736
8407
7728
8214
7795
7983
7905
7777
7987
7683
8011
7724
7933
7839
7790
7994
7657
8102
7597
8164
7664
8102
7802
7957
8020
7801
8198
7708
8309
7707
8321
7806
8208
7966
8103
8151
8020
8295
8025
8319
8130
8223
8278
8069
8419
7894
8502
7808
8486
7812
8347
7905
8125
8025
7873
8101
7697
8090
7642
8027
7732
7912
7875
7770
8003
7671
8067
7684
8039
7795
7912
7996
7760
8179
7648
8301
7601
8338
7688
8250
7850
8128
8053
7998
8205
7966
8297
8034
8258
8196
8160
8375
8024
8474
7916
8486
7903
8374
7984
8186
8128
7967
8229
7747
8249
7629
8167
7649
8023
7754
7885
7908
7753
7993
7708
7994
7772
7902
7928
7752
8114
7627
8249
7568
8306
7624
8243
7782
8121
8006
7988
8175
7888
8269
7894
8281
8021
8220
8200
8114
8388
8024
8452
8011
8403
8080
8237
8196
8038
8341
7833
8420
7709
8369
7670
8205
7728
7993
7839
7810
7948
7719
7997
7729
7936
7852
7808
8007
7672
8157
7593
8223
7616
8190
7745
8076
7947
7917
8146
7796
8283
7764
8320
7844
8247
8002
8160
8211
8077
8362
8062
8396
8135
8290
8243
8104
8367
7908
8476
7792
8481
7749
8360
7789
8142
7878
7896
7991
7730
8038
7682
8017
7753
7911
7894
7760
8028
7645
8112
7634
8118
7739
8033
7924
7871
8136
7732
8282
7667
8347
7711
8298
7852
8185
8052
8087
8233
8040
8344
8090
8334
8220
8211
8375
8022
8477
7886
8508
7835
8438
7876
8259
7993
8013
8097
7780
8147
7648
8101
7633
8008
7750
7871
7893
7724
7999
7675
8033
7726
7969
7874
7838
8089
7696
8246
7621
8341
7624
8312
7760
8222
7952
8080
8129
7966
8260
7975
8322
8088
8257
8269
8144
8426
8022
8506
7952
8462
7969
8317
8099
8109
8234
7873
8294
7696
8279
7622
8170
7681
7994
7795
7830
7940
7733
8007
7727
7970
7830
7847
8002
7712
8172
7608
8285
7596
8282
7694
8191
7885
8057
8104
7909
8245
7857
8316
7907
8296
8069
8207
8261
8111
8421
8053
8453
8071
8334
8151
8159
8287
7947
8403
7774
8433
7688
8336
7689
8146
7776
7926
7901
7764
8000
7722
8006
7778
7914
7901
7774
8054
7660
8173
7619
8219
7695
8141
7847
7994
8063
7847
8246
7764
8354
7785
8339
7888
8242
8070
8149
8262
8071
8387
8092
8370
8190
8228
8295
8021
8418
7850
8485
7767
8452
7777
8284
7849
8050
7965
7819
8053
7692
8071
7691
8020
7796
7895
7944
7758
8067
7683
8133
7714
8089
7843
7966
8048
7807
8228
7690
8354
7678
8376
7765
8291
7934
8165
8128
8050
8277
8038
8341
8103
8269
8253
8141
8394
7965
8483
7871
8478
7859
8358
7956
8165
8088
7908
8175
7725
8204
7637
8131
7683
8007
7821
7873
7965
7763
8045
7734
8042
7818
7945
8002
7793
8177
7668
8318
7616
8364
7691
8293
7845
8168
8053
8024
8219
7947
8311
7975
8311
8108
8227
8286
8090
8426
7981
8443
7945
8365
8022
8191
8154
7981
8279
7768
8325
7647
8288
7646
8146
7735
7971
7884
7836
8002
7769
8041
7807
7979
7935
7840
8106
7715
8246
7634
8317
7672
8263
7798
8134
7999
7981
8192
7861
8310
7836
8336
7935
8270
8096
8170
8289
8083
8398
8041
8379
8083
8231
8195
8046
8330
7844
8430
7723
8421
7684
8278
7734
8087
7853
7877
7987
7756
8061
7760
8037
7837
7924
7984
7781
8122
7686
8217
7698
8210
7800
8100
7983
7938
8186
7799
8322
7739
8378
7784
8313
7924
8210
8126
8106
8290
8057
8363
8092
8294
8208
8140
8329
7944
8448
7812
8482
7767
8400
7817
8192
7924
7954
8042
7752
8104
7665
8090
7712
8016
7851
7895
8004
7786
8108
7729
8140
7802
8069
7967
7927
8165
7768
8316
7686
8405
7709
8380
7827
8245
8010
8112
8182
8016
8308
8019
8314
8124
8209
8262
8056
8391
7906
8449
7850
8411
7891
8258
8024
8048
8142
7807
8214
7663
8225
7642
8157
7744
8020
7906
7886
8036
7801
8085
7814
8037
7924
7921
8110
7778
8269
7677
8379
7668
8365
7767
8265
7952
8106
8135
7970
8274
7914
8326
7972
8288
8119
8165
8281
8035
8393
7952
8388
7959
8271
8075
8094
8220
7878
8336
7715
8359
7634
8269
7676
8118
7811
7948
7970
7839
8069
7810
8061
7864
7969
8009
7829
8177
7712
8294
7672
8302
7740
8223
7909
8073
8111
7912
8276
7819
8354
7835
8328
7953
8241
8135
8125
8304
8044
8366
8035
8301
8112
8146
8247
7952
8377
7790
8452
7704
8389
7712
8224
7815
8027
7952
7840
8075
7756
8108
7790
8051
7897
7927
8052
7807
8187
7740
8234
7770
8173
7893
8037
8095
7863
8281
7762
8389
7745
8391
7821
8294
7984
8172
8169
8074
8308
8040
8327
8108
8228
8220
8048
8347
7880
8445
7792
8436
7787
8308
7874
8104
8016
7876
8129
7725
8182
7698
8141
7783
8042
7935
7907
8068
7812
8139
7788
8124
7885
8019
8070
7854
8242
7721
8376
7671
8410
7742
8337
7888
8192
8075
8046
8230
7979
8317
8016
8288
8144
8169
8294
8016
8406
7901
8425
7882
8335
7964
8170
8109
7943
8228
7751
8288
7658
8261
7683
8150
7812
8009
7971
7882
8080
7823
8095
7870
8009
8000
7871
8178
7739
8324
7660
8370
7700
8313
7838
8187
8041
8029
8214
7906
8308
7894
8329
7980
8245
8149
8131
8305
8018
8380
7970
8341
8031
8192
8155
8008
8302
7811
8397
7686
8371
7666
8256
7751
8092
7898
7918
8040
7827
8100
7820
8049
7910
7936
8065
7812
8221
7722
8302
7716
8261
7821
8144
8007
7982
8203
7842
8340
7790
8371
7842
8317
7986
8206
8173
8087
8316
8038
8348
8076
8243
8176
8078
8308
7892
8434
7775
8454
7726
8352
7779
8169
7895
7951
8039
7788
8129
7750
8132
7822
8049
7947
7914
8103
7811
8208
7776
8218
7845
8124
8017
7963
8201
7811
8356
7721
8415
7749
8385
7872
8253
8053
8124
8215
8036
8303
8037
8277
8122
8159
8258
7981
8376
7846
8438
7793
8398
7854
8242
7979
8022
8116
7809
8209
7700
8232
7722
8165
7838
8034
7983
7896
8097
7829
8149
7851
8094
7993
7969
8157
7803
8311
7694
8404
7685
8385
7789
8270
7971
8116
8141
7983
8267
7950
8322
8019
8254
8163
8117
8307
7972
8391
7904
8375
7921
8256
8043
8072
8195
7854
8296
7707
8345
7656
8263
7734
8133
7890
7982
8035
7875
8109
7852
8089
7924
7977
8083
7840
8247
7727
8363
7708
8362
7779
8265
7943
8109
8124
7944
8278
7858
8344
7884
8322
8009
8216
8181
8087
8321
8005
8355
7996
8274
8082
8113
8227
7916
8360
7755
8425
7686
8371
7709
8223
7835
8048
7999
7899
8128
7832
8136
7863
8065
7980
7947
8141
7809
8262
7749
8285
7776
8217
7923
8067
8106
7896
8283
7788
8386
7782
8377
7857
8278
8026
8156
8186
8042
8306
8031
8293
8087
8174
8207
7991
8348
7840
8439
7762
8438
7765
8298
7860
8116
8023
7907
8137
7783
8200
7785
8160
7869
8046
8007
7913
8139
7822
8222
7816
8171
7910
8057
8099
7886
8273
7754
8398
7706
8420
7762
8330
7910
8190
8093
8064
8235
7990
8295
8025
8235
8154
8108
8289
7945
8400
7845
8429
7829
8344
7936
8177
8081
7960
8215
7783
8278
7714
8276
7764
8164
7878
8008
8023
7903
8130
7844
8142
7907
8065
8063
7906
8229
7763
8359
7689
8412
7722
8350
7851
8203
8038
8041
8199
7930
8301
7939
8314
8024
8210
8170
8064
8313
7944
8370
7906
8312
7981
8186
8125
8003
8274
7800
8361
7697
8372
7700
8273
7804
8127
7968
7971
8100
7885
8144
7896
8115
7999
7978
8162
7840
8301
7743
8362
7729
8314
7824
8182
8026
8021
8204
7873
8320
7823
8358
7876
8280
8022
8164
8186
8041
8302
7987
8303
8014
8202
8129
8038
8286
7851
8417
7741
8444
7708
8353
7787
8191
7921
8010
8082
7861
8172
7832
8157
7901
8061
8030
7929
8184
7815
8277
7774
8266
7844
8162
8023
7998
8204
7835
8353
7749
8408
7775
8360
7891
8228
8059
8103
8203
8009
8292
8019
8239
8107
8099
8247
7939
8382
7812
8443
7767
8402
7830
8244
7963
8045
8122
7858
8225
7768
8252
7805
8186
7918
8048
8063
7912
8176
7850
8212
7879
8126
8002
7973
8174
7805
8328
7715
8430
7725
8413
7814
8275
7985
8124
8153
7995
8261
7958
8280
8022
8192
8167
8036
8306
7906
8392
7842
8375
7877
8258
8028
8082
8181
7876
8309
7751
8358
7739
8301
7822
8169
7964
8014
8113
7907
8158
7897
8137
7977
8009
8131
7844
8293
7735
8398
7701
8392
7773
8276
7931
8115
8120
7955
8256
7878
8310
7907
8268
8018
8149
8182
8021
8308
7930
8340
7949
8255
8057
8098
8221
7909
8369
7774
8443
7731
8403
7772
8262
7917
8101
8071
7954
8175
7893
8171
7928
8085
8049
7937
8211
7820
8330
7748
8332
7789
8242
7932
8097
8116
7902
8273
7799
8358
7784
8333
7868
8222
8011
8085
8181
7988
8278
7972
8241
8053
8120
8197
7951
8350
7807
8455
7754
8443
7778
8321
7900
8153
8073
7959
8190
7861
8243
7865
8195
7960
8063
8108
7926
8226
7842
8268
7832
8219
7942
8078
8117
7890
8287
7766
8405
7724
8402
7778
8295
7920
8147
8090
8014
8204
7955
8245
8007
8165
8128
8021
8289
7880
8402
7802
8427
7813
8339
7936
8172
8098
7971
8241
7827
8313
7787
8304
7851
8183
7982
8037
8128
7914
8197
7879
8178
7942
8073
8097
7900
8266
7755
8401
7705
8429
7743
8351
7878
8197
8054
8043
8206
7935
8277
7939
8246
8035
8136
8182
7982
8311
7883
8359
7878
8306
7978
8176
8141
7980
8285
7814
8391
7737
8386
7756
8276
7887
8131
8030
7981
8151
7912
8177
7934
8107
8063
7964
8215
7827
8350
7742
8391
7747
8326
7859
8197
8052
8025
8212
7875
8308
7841
8335
7923
8248
8066
8122
8220
8004
8320
7958
8300
8020
8183
8147
8012
8309
7849
8433
7741
8441
7732
8349
7820
8187
7983
8014
8119
7889
8187
7873
8149
7954
8046
8112
7907
8251
7813
8328
7787
8295
7866
8165
8047
7993
8225
7839
8356
7767
8396
7808
8336
7938
8217
8111
8091
8245
8012
8299
8028
8216
8135
8066
8272
7901
8405
7786
8451
7753
8375
7827
8220
7971
8018
8123
7862
8230
7806
8244
7851
8150
7971
8006
8116
7892
8236
7845
8233
7904
8151
8058
7997
8229
7825
8386
7735
8438
7752
8399
7850
8257
8027
8123
8198
8007
8286
7996
8276
8068
8155
8201
7989
8340
7862
8411
7827
8370
7875
8234
8023
8052
8180
7863
8296
7756
8331
7767
8251
7859
8127
8002
7980
8129
7894
8185
7913
8138
8033
8009
8187
7845
8342
7740
8427
7723
8410
7803
8277
7987
8119
8160
7980
8285
7929
8322
7966
8252
8097
8133
8251
7994
8346
7920
8352
7945
8250
8068
8083
8226
7873
8343
7735
8395
7695
8340
7764
8205
7913
8050
8077
7928
8163
7888
8157
7959
8049
8108
7908
8259
7788
8354
7739
8363
7801
8257
7961
8105
8160
7944
8309
7838
8381
7855
8349
7972
8235
8131
8091
8260
7999
8309
7982
8240
8074
8096
8222
7920
8370
7782
8446
7733
8426
7771
8277
7889
8102
8062
7938
8182
7865
8216
7890
8149
7996
8015
8154
7887
8280
7813
8292
7833
8219
7973
8084
8163
7907
8326
7785
8427
7770
8416
7850
8298
8004
8170
8172
8055
8292
8023
8280
8062
8163
8187
8000
8332
7855
8432
7790
8432
7802
8304
7923
8118
8079
7912
8212
7802
8279
7799
8253
7876
8128
8015
7980
8153
7883
8222
7889
8190
7974
8071
8139
7895
8319
7776
8434
7735
8448
7779
8346
7931
8198
8110
8058
8239
7967
8306
7994
8246
8109
8118
8252
7965
8370
7876
8399
7872
8306
7966
8144
8126
7943
8271
7782
8355
7720
8341
7788
8236
7912
8089
8057
7951
8164
7891
8173
7951
8088
8098
7944
8256
7791
8385
7734
8422
7757
8344
7896
8208
8093
8039
8244
7923
8349
7911
8339
7999
8245
8150
8100
8289
7978
8345
7943
8298
8035
8173
8178
7995
8316
7792
8410
7714
8421
7735
8318
7843
8153
8004
7980
8123
7893
8181
7897
8135
8002
8010
8160
7866
8294
7777
8342
7778
8295
7899
8173
8088
7998
8266
7859
8395
7815
8406
7872
8337
8015
8200
8174
8069
8288
8010
8298
8039
8188
8159
8041
8307
7871
8429
7760
8445
7746
8351
7830
8187
7999
8011
8154
7871
8239
7846
8229
7900
8108
8031
7970
8185
7863
8267
7842
8245
7913
8145
8090
7975
8269
7828
8417
7752
8454
7785
8379
7910
8250
8097
8117
8241
8026
8310
8029
8255
8115
8118
8248
7955
8383
7845
8435
7810
8358
7866
8207
8024
8019
8183
7832
8288
7756
8311
7800
8230
7920
8098
8060
7956
8185
7893
8204
7927
8126
8063
7985
8227
7823
8390
7743
8450
7740
8411
7844
8273
8027
8123
8201
7998
8309
7962
8326
8028
8233
8161
8075
8291
7941
8366
7892
8343
7936
8217
8069
8042
8220
7839
8345
7725
8386
7719
8327
7821
8186
7974
8032
8127
7930
8174
7917
8146
8010
8027
8164
7878
8317
7776
8400
7750
8387
7837
8266
8018
8101
8192
7935
8325
7873
8386
7916
8339
8034
8206
8186
8060
8297
7977
8318
7992
8229
8106
8077
8265
7891
8395
7749
8438
7706
8378
7766
8234
7918
8070
8094
7932
8194
7875
8188
7923
8094
8047
7968
8200
7849
8318
7810
8309
7853
8222
8018
8070
8208
7903
8362
7800
8428
7802
8401
7912
8288
8086
8163
8240
8047
8299
8014
8246
8097
8119
8227
7954
8371
7822
8446
7759
8414
7803
8269
7932
8083
8105
7896
8229
7815
8272
7834
8208
7934
8084
8079
7948
8208
7869
8243
7894
8180
8016
8054
8197
7886
8363
7772
8461
7757
8436
7823
8325
7995
8188
8174
8066
8292
8007
8319
8046
8218
8160
8063
8295
7925
8405
7856
8410
7866
8285
7978
8100
8141
7891
8270
7762
8347
7753
8319
7829
8200
7971
8045
8118
7939
8186
7914
8176
7992
8068
8149
7912
8305
7770
8421
7744
8435
7798
8339
7943
8183
8136
8034
8278
7941
8353
7956
8329
8052
8196
8199
8041
8314
7939
8352
7940
8278
8046
8127
8179
7922
8322
7762
8397
7692
8377
7743
8271
7880
8120
8063
7975
8171
7919
8198
7948
8128
8077
7978
8222
7839
8342
7779
8385
7804
8303
7945
8165
8138
7989
8301
7872
8401
7865
8403
7933
8304
8075
8168
8230
8040
8310
8004
8274
8058
8161
8189
7978
8340
7809
8426
7721
8422
7735
8307
7844
8146
8027
7992
8170
7882
8231
7873
8199
7951
8071
8091
7943
8234
7851
8300
7852
8251
7937
8127
8128
7963
8307
7830
8436
7773
8451
7835
8377
7970
8230
8144
8110
8265
8030
8306
8043
8219
8149
8067
8285
7906
8412
7816
8432
7788
8329
7882
8164
8044
7967
8196
7825
8287
7785
8292
7841
8187
7969
8042
8124
7936
8226
7904
8220
7964
8121
8111
7955
8281
7810
8426
7749
8468
7770
8407
7896
8264
8093
8128
8250
8019
8347
8002
8312
8075
8176
8197
8023
8322
7904
8380
7882
8330
7938
8187
8092
7992
8239
7807
8349
7718
8368
7760
8281
7873
8146
8018
8000
8149
7919
8200
7947
8139
8071
8005
8226
7854
8371
7773
8435
7776
8387
7885
8261
8059
8087
8230
7953
8371
7919
8390
7971
8316
8110
8175
8242
8031
8331
7962
8314
8002
8201
8129
8030
8269
7830
8390
7715
8416
7698
8347
7798
8202
7960
8046
8116
7916
8198
7890
8173
7963
8068
8116
7942
8262
7833
8356
7814
8338
7886
8230
8061
8064
8238
7888
8368
7806
8429
7847
8387
7971
8266
8139
8133
8267
8031
8309
8030
8232
8125
8088
8261
7919
8399
7782
8441
7735
8387
7800
8228
7948
8054
8119
7894
8236
7839
8262
7873
8180
7985
8042
8133
7912
8250
7863
8263
7904
8183
8050
8039
8232
7874
8384
7769
8459
7775
8438
7879
8321
8052
8183
8223
8077
8324
8036
8306
8079
8183
8207
8022
8349
7886
8423
7824
8388
7838
8250
7972
8064
8135
7869
8273
7765
8335
7780
8290
7870
8159
8023
8015
8152
7931
8219
7933
8179
8034
8050
8192
7894
8356
7776
8453
7756
8441
7818
8331
7995
8174
8173
8046
8310
7982
8367
8006
8301
8123
8156
8244
7991
8338
7918
8363
7930
8271
8039
8092
8186
7885
8316
7742
8399
7717
8370
7780
8241
7931
8096
8085
7963
8186
7917
8185
7980
8098
8127
7955
8278
7836
8393
7779
8406
7832
8324
7978
8165
8152
7995
8307
7889
8400
7887
8394
7995
8271
8140
8133
8255
8008
8316
7983
8262
8069
8135
8216
7941
8341
7771
8423
7701
8400
7743
8291
7876
8136
8060
7978
8189
7891
8229
7899
8159
7998
8035
8153
7906
8290
7837
8336
7851
8275
7988
8129
8160
7958
8326
7821
8438
7796
8446
7883
8362
8028
8217
8196
8087
8296
8025
8287
8058
8189
8191
8026
8331
7880
8432
7776
8420
7769
8315
7871
8138
8049
7958
8205
7836
8280
7812
8272
7895
8161
8029
8022
8174
7912
8257
7897
8227
7978
8116
8149
7955
8325
7819
8454
7764
8473
7795
8400
7946
8262
8132
8120
8283
8029
8345
8033
8282
8114
8134
8244
7974
8366
7877
8408
7862
8317
7923
8157
8089
7958
8239
7805
8348
7751
8360
7803
8261
7915
8113
8063
7977
8178
7921
8195
7967
8128
8110
7985
8264
7825
8403
7765
8445
7774
8382
7896
8245
8087
8094
8268
7978
8370
7958
8376
8018
8270
8149
8121
8272
7987
8349
7941
8312
8005
8184
8126
7988
8266
7796
8377
7699
8396
7708
8322
7825
8175
8005
8038
8139
7923
8207
7926
8165
8016
8046
8177
7915
8324
7814
8388
7805
8354
7905
8229
8079
8066
8264
7907
8401
7869
8443
7910
8383
8037
8244
8185
8102
8297
8016
8311
8036
8224
8149
8067
8285
7875
8400
7740
8428
7718
8352
7795
8201
7945
8038
8120
7900
8219
7849
8240
7907
8144
8036
8009
8193
7896
8295
7857
8294
7926
8206
8088
8054
8273
7883
8419
7795
8479
7817
8440
7934
8314
8110
8180
8254
8068
8326
8041
8271
8118
8155
8252
7984
8380
7855
8433
7782
8367
7827
8224
7968
8042
8135
7861
8262
7780
8314
7810
8244
7920
8124
8064
7988
8198
7918
8246
7942
8172
8060
8040
8223
7866
8390
7771
8474
7772
8453
7845
8334
8030
8187
8206
8069
8326
8007
8362
8042
8251
8159
8105
8283
7957
8380
7894
8370
7913
8245
8025
8056
8175
7859
8314
7743
8385
7739
8339
7821
8218
7965
8072
8114
7958
8198
7930
8174
8002
8066
8157
7919
8312
7803
8424
7774
8428
7832
8319
8003
8164
8194
8018
8341
7926
8420
7944
8379
8050
8240
8193
8084
8301
7984
8338
7986
8255
8081
8098
8203
7882
8332
7739
8407
7684
8380
7747
8273
7907
8121
8081
7969
8192
7901
8211
7932
8144
8061
8010
8216
7889
8337
7816
8364
7862
8288
8013
8144
8188
7970
8347
7856
8453
7851
8448
7936
8347
8093
8203
8229
8067
8310
8015
8271
8088
8165
8212
7986
8338
7828
8428
7742
8414
7761
8296
7891
8129
8064
7956
8211
7856
8268
7849
8246
7940
8121
8084
7986
8220
7894
8273
7895
8227
8003
8109
8177
7945
8348
7809
8454
7771
8476
7843
8400
7992
8251
8174
8111
8292
8028
8314
8029
8228
8138
8086
8280
7939
8394
7839
8401
7819
8300
7928
8136
8092
7948
8241
7803
8335
7775
8336
7838
8232
7965
8093
8114
7971
8210
7936
8212
7993
8124
8142
7964
8309
7831
8441
7769
8472
7789
8395
7934
8255
8130
8111
8290
8017
8395
8001
8361
8065
8227
8195
8055
8315
7948
8363
7926
8303
7995
8148
8115
7949
8265
7774
8373
7697
8382
7737
8295
7860
8154
8037
8006
8162
7938
8221
7957
8158
8076
8022
8220
7871
8358
7801
8420
7806
8358
7917
8228
8121
8066
8290
7942
8429
7898
8440
7955
8354
8083
8198
8220
8058
8313
7996
8297
8046
8193
8151
8011
8290
7822
8396
7713
8421
7720
8343
7824
8203
8005
8040
8153
7907
8227
7877
8202
7947
8096
8090
7975
8248
7874
8330
7863
8314
7948
8207
8118
8040
8290
7872
8437
7817
8484
7864
8425
7986
8299
8158
8161
8279
8053
8319
8046
8235
8130
8095
8271
7923
8388
7796
8424
7756
8348
7822
8199
7985
8030
8172
7874
8280
7816
8304
7851
8217
7967
8072
8115
7952
8236
7895
8250
7954
8171
8097
8035
8277
7876
8437
7774
8492
7794
8452
7902
8332
8078
8181
8249
8070
8353
8026
8329
8067
8206
8194
8049
8330
7919
8398
7856
8346
7877
8207
8022
8007
8176
7835
8315
7741
8367
7760
8312
7858
8178
8005
8028
8155
7946
8218
7950
8176
8061
8061
8214
7911
8373
7802
8455
7769
8428
7848
8305
8035
8160
8226
8030
8368
7967
8410
7997
8339
8088
8186
8222
8039
8332
7958
8346
7976
8236
8080
8063
8220
7853
8340
7723
8413
7703
8381
7787
8252
7937
8098
8106
7961
8206
7924
8214
7984
8126
8120
7980
8267
7859
8376
7817
8377
7860
8280
8031
8126
8220
7966
8373
7887
8468
7899
8444
7998
8324
8136
8161
8258
8042
8313
8021
8263
8102
8124
8225
7931
8347
7768
8422
7705
8398
7766
8274
7902
8110
8084
7948
8208
7865
8254
7875
8201
7987
8073
8147
7951
8275
7880
8299
7903
8257
8039
8115
8214
7942
8374
7814
8480
7809
8490
7893
8392
8054
8249
8214
8110
8310
8035
8302
8065
8199
8184
8033
8319
7880
8393
7789
8389
7797
8276
7920
8117
8091
7933
8245
7809
8333
7793
8307
7870
8184
8005
8030
8147
7940
8222
7929
8216
8008
8104
8172
7948
8346
7812
8457
7765
8479
7822
8396
7986
8254
8164
8117
8314
8023
8369
8022
8314
8090
8165
8225
8017
8351
7915
8380
7899
8281
7978
8120
8118
7922
8266
7771
8380
7716
8378
7772
8274
7912
8133
8072
7998
8185
7943
8210
7982
8141
8119
8000
8280
7878
8419
7803
8450
7819
8371
7951
8230
8138
8074
8321
7955
8432
7940
8424
8005
8318
8142
8161
8264
8029
8337
7985
8290
8041
8152
8145
7949
8282
7776
8393
7697
8408
7721
8321
7852
8180
8029
8028
8170
7917
8225
7918
8200
8012
8082
8181
7962
8322
7873
8388
7863
8326
7957
8198
8135
8042
8320
7892
8453
7854
8485
7912
8411
8032
8265
8176
8115
8273
8028
8298
8045
8210
8152
8049
8281
7861
8389
7757
8409
7735
8332
7834
8193
8014
8026
8178
7870
8271
7837
8275
7890
8180
8029
8042
8168
7936
8273
7900
8269
7977
8175
8139
8029
8313
7863
8447
7790
8502
7823
8459
7951
8333
8131
8187
8284
8066
8346
8032
8292
8112
8167
8230
7997
8358
7867
8392
7801
8321
7868
8181
8020
7988
8191
7832
8314
7756
8353
7784
8276
7901
8150
8059
8010
8180
7938
8221
7968
8174
8093
8048
8270
7892
8410
7783
8474
7779
8443
7890
8328
8090
8179
8262
8049
8384
7996
8393
8026
8293
8134
8135
8257
7989
8349
7922
8317
7944
8196
8066
8019
8209
7816
8340
7718
8408
7721
8360
7808
8226
7975
8076
8125
7957
8203
7936
8198
8012
8095
8168
7947
8319
7842
8418
7822
8418
7888
8290
8053
8131
8240
7992
8397
7924
8468
7935
8413
8026
8272
8177
8125
8297
8023
8324
8008
8237
8103
8070
8231
7875
8355
7740
8426
7706
8398
7783
8260
7923
8095
8101
7945
8221
7882
8251
7920
8179
8048
8038
8194
7914
8307
7862
8324
7915
8249
8053
8106
8237
7938
8397
7833
8496
7847
8482
7946
8371
8100
8212
8235
8078
8308
8026
8284
8091
8160
8212
7993
8347
7839
8415
7757
8384
7785
8259
7923
8081
8102
7908
8250
7818
8323
7831
8284
7927
8160
8066
8017
8203
7933
8257
7937
8215
8049
8098
8216
7942
8384
7814
8487
7787
8493
7870
8392
8027
8255
8213
8129
8333
8041
8369
8047
8271
8140
8123
8258
7954
8350
7851
8357
7851
8250
7956
8090
8127
7898
8278
7765
8373
7741
8353
7814
8255
7950
8110
8117
7986
8208
7948
8209
8011
8114
8148
7973
8314
7844
8439
7792
8465
7835
8382
7992
8249
8174
8089
8339
7987
8423
7970
8390
8040
8257
8164
8092
8292
7981
8333
7956
8275
8017
8122
8144
7918
8287
7757
8397
7699
8409
7747
8310
7871
8165
8046
8021
8179
7932
8228
7951
8188
8062
8054
8213
7923
8352
7848
8408
7863
8349
7982
8209
8159
8058
8346
7931
8464
7896
8482
7953
8391
8068
8232
8209
8081
8300
8015
8283
8053
8186
8161
8011
8284
7821
8391
7722
8409
7723
8324
7829
8185
8016
8008
8163
7872
8245
7859
8257
7930
8151
8077
8015
8220
7911
8309
7889
8290
7989
8190
8151
8036
8331
7875
8472
7820
8510
7867
8462
7993
8317
8158
8179
8277
8050
8321
8036
8255
8123
8119
8260
7945
8367
7819
8401
7777
8325
7849
8183
8026
8017
8189
7854
8316
7786
8337
7829
8252
7947
8126
8106
7997
8218
7934
8239
7969
8170
8117
8043
8288
7871
8430
7791
8495
7800
8463
7928
8348
8108
8199
8277
8077
8377
8008
8350
8041
8237
8163
8078
8299
7947
8362
7885
8322
7924
8192
8042
8008
8207
7830
8346
7737
8396
7744
8344
7844
8204
7990
8054
8133
7949
8215
7951
8189
8044
8082
8202
7932
8360
7825
8444
7807
8428
7886
8321
8077
8172
8266
8041
8414
7956
8447
7968
8378
8057
8226
8196
8078
8309
7990
8325
7985
8213
8071
8045
8207
7844
8337
7720
8421
7709
8399
7790
8272
7944
8104
8112
7965
8213
7906
8231
7954
8156
8087
8021
8244
7902
8363
7859
8387
7918
8293
8061
8139
8244
7986
8410
7885
8498
7886
8476
7978
8356
8114
8186
8243
8061
8314
8023
8261
8090
8129
8201
7939
8327
7789
8402
7721
8387
7770
8278
7913
8114
8093
7929
8235
7856
8300
7866
8264
7967
8139
8123
8001
8252
7918
8303
7933
8247
8058
8122
8224
7961
8391
7830
8503
7818
8513
7893
8427
8057
8273
8211
8121
8302
8016
8307
8027
8214
8139
8059
8278
7909
8373
7819
8374
7809
8266
7928
8109
8103
7919
8259
7791
8352
7775
8333
7845
8228
7987
8098
8148
7981
8243
7950
8225
8034
8136
8190
7982
8352
7852
8467
7790
8494
7834
8409
8004
8275
8184
8127
8338
8019
8397
7989
8345
8063
8208
8191
8056
8317
7940
8343
7908
8264
7979
8112
8131
7917
8276
7768
8391
7716
8397
7756
8305
7895
8161
8064
8016
8193
7954
8241
7983
8168
8098
8038
8249
7901
8390
7830
8439
7841
8382
7981
8251
8165
8100
8339
7959
8456
7928
8459
7979
8356
8102
8193
8223
8052
8300
7985
8274
8014
8146
8125
7962
8263
7783
8385
7698
8416
7723
8344
7849
8208
8029
8043
8175
7925
8256
7906
8242
7982
8134
8135
7992
8272
7890
8348
7872
8321
7974
8206
8142
8051
8322
7899
8474
7857
8528
7904
8461
8022
8314
8175
8155
8273
8052
8317
8048
8241
8133
8084
8249
7891
8360
7763
8390
7730
8323
7829
8204
8001
8037
8182
7875
8288
7819
8316
7866
8226
7999
8107
8148
7981
8265
7934
8274
7981
8199
8129
8049
8295
7885
8446
7811
8521
7828
8482
7950
8357
8116
8207
8263
8079
8342
8013
8314
8064
8192
8182
8033
8315
7893
8374
7838
8323
7869
8187
8022
8020
8197
7843
8322
7752
8377
7769
8318
7865
8191
8016
8045
8165
7955
8237
7974
8188
8082
8079
8244
7926
8400
7821
8477
7806
8460
7893
8358
8083
8208
8268
8065
8397
7977
8421
7992
8336
8096
8188
8229
8046
8326
7945
8304
7938
8198
8050
8036
8194
7839
8333
7722
8411
7705
8384
7793
8257
7947
8100
8115
7980
8219
7946
8236
8002
8144
8142
7998
8295
7896
8404
7848
8416
7901
8316
8063
8168
8256
8021
8414
7915
8489
7918
8446
7994
8309
8128
8156
8250
8038
8315
8014
8248
8076
8094
8201
7909
8319
7744
8396
7697
8394
7769
8287
7914
8121
8100
7959
8230
7882
8280
7900
8221
8010
8108
8167
7975
8297
7911
8346
7937
8273
8060
8137
8240
7971
8401
7863
8516
7846
8520
7929
8418
8076
8253
8217
8113
8308
8028
8302
8067
8197
8173
8026
8285
7855
8370
7764
8363
7784
8264
7921
8109
8100
7939
8252
7814
8339
7806
8323
7888
8203
8032
8061
8171
7963
8262
7951
8237
8056
8130
8199
7972
8368
7843
8484
7792
8513
7864
8430
8024
8288
8202
8134
8317
8011
8362
8005
8308
8089
8173
8224
8004
8328
7882
8347
7877
8261
7954
8103
8107
7917
8273
7781
8391
7731
8391
7796
8287
7930
8155
8091
8018
8205
7956
8233
8000
8159
8138
8040
8309
7899
8441
7826
8471
7839
8397
7989
8264
8163
8107
8333
7974
8433
7937
8417
7995
8305
8120
8149
8246
8013
8316
7958
8263
8010
8134
8138
7952
8283
7783
8394
7704
8418
7735
8339
7860
8192
8040
8044
8184
7942
8249
7934
8212
8031
8105
8184
7966
8327
7884
8396
7887
8352
7990
8229
8164
8077
8354
7935
8486
7889
8513
7926
8425
8040
8267
8175
8113
8287
8026
8302
8042
8195
8131
8028
8260
7851
8362
7737
8397
7724
8341
7841
8204
8017
8035
8186
7885
8280
7863
8301
7920
8212
8049
8072
8203
7961
8296
7929
8295
7995
8206
8150
8046
8318
7891
8472
7825
8528
7847
8478
7969
8350
8134
8183
8266
8054
8322
8025
8287
8094
8158
8218
7972
8321
7840
8361
7782
8313
7854
8179
8020
8006
8199
7851
8325
7775
8370
7814
8306
7922
8172
8088
8044
8212
7969
8250
7991
8194
8111
8065
8274
7908
8425
7811
8504
7824
8492
7928
8365
8105
8206
8279
8070
8382
7991
8383
8009
8286
8123
8126
8250
7973
8316
7891
8293
7910
8174
8035
8008
8198
7834
8346
7739
8417
7736
8369
7820
8243
7976
8097
8148
7985
8233
7958
8214
8034
8112
8187
7981
8348
7872
8437
7839
8429
7906
8333
8092
8187
8278
8040
8432
7942
8476
7934
8405
8020
8261
8156
8113
8281
8009
8303
7989
8208
8070
8058
8206
7866
8336
7738
8417
7696
8390
7780
8273
7923
8111
8108
7963
8233
7907
8270
7944
8196
8060
8060
8212
7951
8346
7900
8375
7936
8288
8080
8143
8260
7989
8431
7870
8512
7865
8499
7954
8387
8090
8217
8223
8074
8308
8025
8279
8072
8151
8182
7967
8300
7810
8380
7736
8377
7785
8274
7935
8118
8121
7945
8263
7844
8327
7843
8304
7947
8184
8079
8037
8212
7945
8285
7957
8250
8077
8135
8236
7982
8413
7852
8523
7824
8525
7896
8443
8053
8279
8204
8126
8318
8026
8345
8034
8262
8128
8112
8245
7940
8333
7837
8341
7834
8257
7947
8101
8125
7917
8284
7787
8380
7762
8375
7829
8272
7972
8137
8130
8008
8220
7962
8225
8023
8145
8175
7996
8335
7871
8452
7807
8494
7871
8416
8009
8276
8199
8129
8357
8004
8424
7969
8382
8033
8252
8163
8099
8285
7970
8320
7928
8250
7998
8109
8124
7916
8290
7772
8396
7702
8409
7738
8318
7873
8180
8058
8043
8190
7951
8246
7957
8183
8065
8070
8227
7945
8374
7871
8422
7879
8370
7999
8247
8189
8095
8362
7956
8478
7905
8482
7947
8380
8054
8223
8193
8070
8283
8002
8255
8014
8151
8118
7968
8259
7806
8384
7732
8417
7737
8349
7854
8207
8032
8044
8183
7911
8279
7879
8271
7951
8173
8087
8031
8234
7925
8325
7909
8306
8003
8212
8157
8054
8345
7923
8497
7854
8540
7881
8478
7994
8320
8140
8162
8264
8052
8314
8033
8246
8103
8097
8221
7920
8331
7792
8376
7763
8329
7852
8202
8030
8037
8204
7877
8317
7808
8347
7843
8270
7969
8151
8125
8025
8249
7966
8266
7998
8208
8138
8073
8299
7910
8452
7830
8535
7841
8501
7949
8381
8118
8213
8262
8068
8350
7998
8338
8036
8231
8152
8069
8266
7919
8333
7851
8290
7875
8183
8025
8016
8193
7840
8335
7738
8401
7764
8370
7869
8246
8037
8103
8173
7991
8257
7982
8219
8063
8112
8221
7960
8372
7840
8458
7825
8460
7905
8353
8087
8203
8269
8057
8403
7957
8437
7962
8373
8052
8223
8183
8066
8287
7960
8280
7950
8198
8036
8037
8191
7851
8335
7739
8427
7715
8407
7793
8278
7945
8129
8116
7993
8233
7938
8260
7984
8175
8111
8048
8266
7928
8376
7879
8401
7925
8311
8073
8178
8261
8029
8442
7922
8519
7906
8487
7968
8353
8094
8180
8220
8051
8287
8004
8241
8045
8112
8170
7926
8293
7774
8391
7720
8403
7773
8295
7908
8131
8094
7982
8245
7878
8305
7875
8273
7975
8151
8119
8015
8264
7939
8329
7953
8283
8068
8158
8240
8008
8413
7890
8533
7849
8545
7912
8438
8046
8268
8185
8116
8294
8027
8310
8032
8208
8127
8041
8236
7883
8342
7791
8358
7795
8275
7908
8126
8102
7959
8261
7821
8355
7790
8364
7868
8260
8000
8127
8154
8000
8249
7969
8254
8042
8158
8194
8018
8349
7878
8489
7823
8532
7867
8466
8011
8316
8183
8150
8317
8021
8386
7989
8336
8047
8210
8173
8040
8283
7910
8318
7874
8254
7951
8128
8108
7946
8271
7795
8393
7730
8419
7768
8326
7902
8200
8074
8063
8204
7976
8258
7994
8193
8113
8076
8262
7931
8402
7841
8455
7857
8425
7991
8295
8172
8138
8346
8003
8454
7928
8444
7964
8346
8076
8195
8203
8043
8287
7959
8253
7982
8140
8092
7963
8243
7799
8373
7707
8418
7723
8352
7830
8217
8013
8074
8174
7950
8259
7921
8256
7989
8153
8139
8016
8289
7915
8379
7900
8350
7983
8250
8151
8108
8339
7979
8490
7890
8539
7900
8463
7993
8309
8138
8154
8256
8053
8313
8029
8226
8097
8068
8207
7874
8323
7754
8385
7728
8347
7823
8227
7991
8069
8163
7909
8288
7844
8324
7883
8253
8003
8134
8155
8010
8282
7953
8295
7992
8226
8126
8091
8299
7941
8468
7852
8554
7856
8520
7952
8390
8105
8219
8243
8082
8327
8008
8314
8049
8187
8162
8018
8273
7870
8340
7810
8324
7852
8215
7994
8058
8179
7878
8317
7778
8381
7791
8355
7894
8233
8042
8098
8186
7995
8259
7990
8233
8088
8115
8236
7953
8396
7841
8497
7830
8506
7908
8398
8078
8241
8248
8086
8365
7980
8397
7978
8334
8075
8184
8201
8014
8291
7911
8283
7906
8198
8017
8046
8172
7872
8330
7755
8421
7735
8409
7798
8284
7952
8139
8116
8006
8232
7959
8252
8011
8165
8138
8026
8295
7908
8415
7855
8442
7913
8361
8068
8220
8255
8070
8411
7949
8485
7915
8446
7981
8311
8113
8165
8234
8029
8285
7972
8226
8037
8098
8157
7911
8297
7764
8405
7720
8416
7764
8313
7898
8162
8084
8010
8234
7921
8294
7921
8259
8021
8145
8177
8005
8304
7922
8364
7933
8313
8044
8187
8228
8038
8404
7916
8526
7867
8533
7919
8433
8038
8268
8185
8113
8267
8016
8283
8024
8170
8109
8006
8247
7852
8360
7763
8388
7774
8310
7896
8165
8078
8000
8235
7853
8325
7829
8340
7903
8245
8037
8109
8182
7996
8283
7977
8278
8046
8180
8191
8032
8361
7890
8506
7836
8550
7880
8487
8010
8322
8154
8155
8284
8034
8356
8006
8305
8067
8165
8188
7995
8304
7871
8330
7824
8271
7907
8151
8076
7970
8246
7810
8372
7748
8408
7800
8330
7920
8188
8078
8053
8209
7981
8256
8013
8201
8127
8072
8285
7924
8439
7847
8504
7871
8469
7987
8342
8164
8189
8327
8033
8412
7945
8395
7966
8296
8079
8148
8211
7993
8281
7912
8251
7945
8137
8069
7979
8247
7819
8386
7723
8425
7723
8369
7831
8236
8008
8085
8163
7983
8265
7968
8260
8045
8147
8188
8010
8340
7905
8414
7878
8409
7963
8308
8143
8152
8332
8011
8474
7917
8506
7920
8431
8006
8285
8146
8129
8250
8010
8275
7987
8189
8069
8025
8199
7851
8328
7742
8415
7723
8381
7815
8254
7970
8099
8155
7950
8274
7890
8313
7929
8231
8048
8109
8198
7986
8313
7931
8338
7974
8264
8122
8127
8318
7987
8477
7883
8564
7877
8522
7949
8381
8091
8214
8223
8069
8306
8012
8271
8041
8142
8153
7967
8269
7821
8358
7764
8346
7822
8251
7974
8097
8161
7917
8299
7807
8363
7820
8333
7919
8215
8067
8072
8213
7992
8286
7991
8243
8093
8127
8254
7969
8420
7866
8533
7843
8532
7917
8443
8067
8265
8221
8103
8326
7996
8361
7992
8284
8082
8125
8198
7958
8293
7864
8298
7863
8221
7986
8073
8154
7896
8316
7774
8418
7749
8403
7817
8289
7964
8151
8123
8023
8229
7980
8246
8028
8164
8169
8023
8326
7902
8456
7852
8496
7917
8419
8059
8261
8225
8102
8369
7964
8446
7942
8411
8006
8279
8123
8125
8226
7970
8271
7921
8212
7989
8096
8145
7917
8303
7777
8418
7722
8428
7760
8328
7886
8186
8072
8042
8211
7944
8276
7951
8221
8052
8115
8207
7988
8353
7898
8404
7920
8357
8044
8241
8227
8091
8407
7950
8518
7890
8512
7923
8399
8031
8236
8179
8107
8267
8005
8267
8007
8151
8105
7965
8245
7815
8369
7747
8410
7763
8332
7868
8189
8051
8031
8213
7905
8309
7872
8321
7935
8213
8063
8070
8215
7974
8318
7953
8304
8035
8201
8179
8059
8373
7914
8521
7855
8568
7885
8490
7985
8326
8136
8156
8269
8041
8321
8008
8243
8054
8099
8178
7936
8295
7823
8356
7799
8308
7889
8189
8057
8021
8222
7854
8345
7784
8386
7833
8323
7954
8189
8112
8051
8229
7986
8263
8018
8206
8144
8083
8309
7933
8472
7857
8541
7862
8506
7968
8371
8133
8192
8279
8045
8377
7974
8371
8007
8263
8113
8088
8215
7945
8291
7876
8263
7917
8166
8060
8008
8227
7832
8362
7744
8427
7755
8385
7861
8254
8021
8107
8175
7994
8249
7978
8234
8060
8129
8213
7991
8369
7886
8455
7869
8459
7952
8348
8127
8194
8307
8040
8439
7929
8465
7930
8388
8012
8234
8141
8072
8231
7961
8248
7947
8176
8050
8032
8208
7863
8350
7749
8428
7715
8396
7791
8272
7971
8129
8145
8004
8269
7932
8294
7961
8209
8076
8080
8237
7963
8359
7920
8386
7964
8303
8117
8169
8303
8017
8468
7906
8538
7871
8497
7942
8350
8082
8202
8219
8062
8291
8004
8238
8041
8111
8163
7937
8285
7803
8384
7755
8387
7801
8280
7960
8133
8133
7952
8281
7856
8344
7862
8311
7952
8193
8113
8054
8245
7980
8315
7986
8265
8091
8146
8259
8001
8445
7883
8552
7850
8546
7909
8427
8036
8247
8188
8097
8292
7997
8328
8017
8233
8089
8067
8207
7904
8302
7818
8312
7834
8251
7964
8110
8144
7933
8303
7807
8405
7787
8389
7847
8287
7987
8143
8151
8026
8244
7996
8255
8059
8170
8204
8017
8364
7901
8497
7854
8523
7907
8462
8047
8300
8213
8125
8341
7994
8409
7956
8363
8021
8235
8134
8063
8231
7929
8278
7896
8221
7974
8110
8138
7923
8300
7776
8404
7716
8421
7759
8328
7900
8195
8079
8054
8206
7963
8273
7992
8223
8107
8106
8260
7968
8386
7883
8444
7911
8402
8040
8274
8215
8110
8387
7959
8476
7892
8470
7934
8368
8042
8205
8180
8051
8256
7965
8232
7986
8125
8111
7961
8257
7817
8396
7740
8426
7745
8354
7869
8219
8050
8064
8211
7935
8292
7906
8293
7979
8200
8129
8066
8285
7969
8353
7936
8326
8026
8231
8202
8089
8377
7947
8519
7869
8551
7881
8464
7982
8298
8129
8146
8245
8033
8292
8000
8199
8061
8045
8192
7889
8316
7783
8369
7771
8331
7858
8199
8035
8027
8205
7872
8329
7827
8374
7876
8307
7987
8162
8147
8040
8268
7982
8299
8029
8217
8160
8092
8346
7949
8501
7866
8562
7864
8512
7954
8361
8116
8185
8255
8051
8351
7986
8327
8012
8191
8120
8036
8239
7892
8308
7841
8285
7891
8180
8052
8020
8219
7843
8352
7749
8415
7776
8374
7882
8241
8045
8105
8186
8007
8269
8002
8231
8101
8123
8250
7978
8411
7884
8500
7870
8480
7956
8360
8118
8203
8281
8036
8393
7936
8432
7948
8353
8034
8184
8155
8029
8263
7939
8257
7937
8176
8043
8012
8192
7827
8328
7725
8420
7713
8399
7805
8278
7987
8144
8172
8023
8265
7959
8274
8010
8205
8152
8074
8314
7958
8411
7909
8419
7973
8352
8143
8216
8328
8044
8461
7919
8519
7890
8458
7952
8313
8075
8143
8182
7996
8215
7938
8147
7957
7971
8039
7749
8145
7598
8200
7526
8190
7609
8124
7789
8001
8062
7996
8379
8066
8549
8141
8555
8307
8434
8379
8230
8463
8118
8461
8099
8371
8169
8215
8320
8047
8493
7920
8594
7906
8587
7957
8456
8075
8259
8193
8094
8273
7990
8264
7983
8149
8070
7985
8199
7816
8255
7695
8238
7711
8150
7840
8003
8023
7810
8160
7691
8258
7704
8340
7903
8345
8139
8276
8356
8160
8359
8046
8297
8108
8190
8253
8038
8410
7919
8548
7885
8570
7923
8465
8025
8270
8173
8086
8267
7931
8274
7830
8127
7833
7941
7918
7779
8023
7656
8073
7694
8106
7930
8149
8235
8080
8463
7918
8490
7768
8391
7702
8226
7834
8110
8035
8025
8244
8056
8374
8140
8326
8255
8215
8491
8161
8581
7969
8550
7986
8545
8164
8421
8357
8280
8529
8072
8488
7887
8414
7961
8316
8073
8192
8205
7983
8230
7933
8264
8080
8222
8239
8079
8422
7958
8552
7811
8349
7394
7732
7043
7268
7104
7141
7417
7286
7754
7508
8005
8067
8573
9022
9245
9589
9114
9407
8810
9103
8640
8758
8660
8457
8657
8127
8648
7978
8599
7900
8359
7880
8135
8012
7997
8107
7834
8024
7713
7863
7789
7798
8129
7774
8284
7722
8319
7609
8113
7604
7888
7668
7563
7634
7259
7688
7288
7908
7574
7990
7801
7921
7981
7854
8166
7963
8464
8398
8656
8607
8460
8753
8370
9010
8383
9063
8352
8989
8402
8717
8388
8345
8334
8075
8319
7978
8277
8029
8124
8072
7893
8204
7865
8390
7946
8473
8043
8268
8116
8062
8230
7803
8269
7652
8262
7628
8155
7695
7971
7788
7775
7897
7693
8001
7819
8080
8009
7981
8171
7872
8427
7924
8680
8085
8730
8233
8707
8442
8500
8526
8233
8592
8188
8610
8150
8422
8127
8162
8189
7972
8209
7794
8107
7743
7969
7848
7840
8103
7749
8332
7751
8442
7722
8342
7727
8141
7834
7966
7987
7789
8015
7747
8055
7902
8065
8113
7956
8243
7818
8314
7724
8262
7873
8331
8123
8172
8240
7886
8301
7763
8337
7752
8295
7880
8188
7968
7931
7995
7847
8255
8059
8286
8187
8214
8351
8079
8612
8084
8752
8024
8685
8081
8596
8311
8544
8540
8335
8594
8179
8521
8084
8357
8097
8143
8177
7936
8200
7772
8126
7674
7940
7755
7796
7977
7761
8314
7751
8342
7555
8197
7685
8205
7851
8038
8044
7904
8065
7818
8126
8062
8329
8433
8287
8631
8274
8883
8310
8802
8167
8578
8240
8376
8432
8339
8769
8298
8782
8172
8624
8154
8430
8253
8271
8367
8119
8390
8070
8319
8149
8187
8271
8016
8411
7827
8374
7550
8183
7489
8015
7580
7839
7806
7723
7909
7632
8086
7944
8400
8260
8349
8418
8232
8542
8046
8430
7960
8325
8022
8118
8189
7919
8281
7801
8446
7817
8477
7879
8379
8022
8225
8179
8069
8234
7966
8204
7975
8042
7974
7809
8171
7837
8429
7834
8476
7907
8472
8107
8382
8346
8252
8460
8021
8445
7913
8366
7937
8206
8020
8003
8065
7826
8101
7694
7872
7593
7672
7686
7505
7849
7319
7903
7150
7871
7270
7904
7469
7821
7744
7780
8056
7996
8469
8253
8585
8442
8508
8664
8521
8898
8425
8900
8347
8701
8257
8461
8512
8489
8778
8296
8781
8099
8671
8027
8494
8156
8373
8190
8042
8187
7911
8112
7859
7977
7824
7483
7554
7017
7488
6835
7479
6842
7441
6980
7448
7564
7836
8388
8482
9151
8792
9116
8680
9180
9285
9286
9311
8953
9132
8651
8886
8514
8614
8581
8430
8707
8207
8731
8024
8714
8021
8605
8044
8322
8099
8168
8301
8114
8345
7989
8205
8010
8000
8024
7745
8059
7573
8096
7555
8113
7706
7996
7853
7848
8116
7813
8384
7912
8480
7848
8307
7913
8081
7918
7798
7919
7659
7951
7745
7970
7971
8008
8307
7950
8489
7869
8498
7752
8342
7785
8230
7994
8039
8104
7855
8180
7755
8106
7793
8083
7967
7962
8121
7920
8288
7841
8190
7823
8070
7935
7843
8087
7772
8383
7785
8499
7858
8499
7966
8348
8164
8352
8453
8256
8436
8122
8347
8163
8213
8278
8035
8399
7906
8471
7890
8449
7911
8266
7999
8056
8180
7905
8310
7813
8324
7808
8306
7939
8174
8075
7949
7946
7523
7731
7468
7746
7713
7736
7968
7714
8451
8197
9014
8365
9029
8364
8781
8403
8496
8428
8233
8419
8003
8340
8022
8254
8168
8227
8422
8136
8504
8056
8514
8105
8402
8202
8190
8280
7916
8303
7668
8264
7573
8211
7723
8213
8013
8204
8263
8154
8399
8142
8421
8328
8341
8290
7952
8217
7660
8172
7530
8197
7684
8162
7831
7950
7917
7705
8064
7644
8136
7676
8096
7738
7981
7909
7949
8257
8002
8329
7985
8214
8013
8052
8305
8198
8754
8214
8814
8010
8605
7912
8361
7923
8078
7984
7892
8176
7995
8335
8050
8288
8136
8017
8121
7851
8359
7986
8637
8389
8950
8709
8750
8753
8501
8786
8180
8699
8033
8599
8020
8371
7995
8095
8065
7965
8197
7966
8202
7961
7995
8006
7821
8245
7800
8357
7745
8481
7902
8424
8074
8337
8250
8160
8421
8020
8328
7795
8106
7750
7965
7871
7815
7994
7666
7988
7704
8156
8016
8078
8008
7679
8060
7594
8275
7634
8396
7768
8323
7935
8333
8354
8439
8646
8372
8547
8178
8306
8129
8103
8293
8024
8457
7946
8468
7918
8388
8025
8218
8161
8044
8322
7898
8412
7790
8323
7782
8194
7896
8061
8031
7889
7960
7499
7596
7268
7274
7245
7100
7451
7146
8035
7732
8754
8390
9149
8634
8956
8789
8643
8618
8200
8477
8036
8388
8123
8419
8351
8264
8513
8176
8481
8001
8310
7981
8128
8067
7958
8404
8059
8668
8054
8765
8057
8593
8100
8387
8201
8171
8224
7965
8144
7834
8016
7906
7904
8101
7880
8413
7944
8513
7911
8492
8068
8325
8086
7963
8107
7762
8208
7702
8301
7849
8300
8019
8187
8172
8086
8295
7968
8192
7916
8070
8034
7986
8288
7898
8437
7795
8470
7777
8423
7883
8303
8104
8200
8331
8174
8488
8153
8455
8109
8283
8200
8054
8222
7868
8270
7812
8248
7910
8229
8141
8092
8301
7911
8440
7830
8421
7711
8224
7635
7837
7551
7588
7680
7537
7858
7693
7980
7999
8197
8497
8317
8803
8168
8627
7883
8476
8033
8624
8555
8556
8560
8286
8644
8207
8742
8309
8693
8349
8460
8441
8365
8566
8200
8417
8052
8225
8108
8058
8212
7769
8204
7541
8210
7503
8200
7665
8180
7903
8131
8192
8094
8368
7971
8189
7908
8101
8057
7958
8164
7846
8315
7845
8391
7981
8324
8093
8123
8254
7969
8381
7815
8344
7636
8215
7772
8166
7964
8149
8317
8220
8497
8213
8371
8163
8125
8155
7835
8199
7639
8294
7667
8323
7745
8244
7937
8143
8152
8013
8300
7899
8319
7871
8207
7880
7993
7988
7921
8180
7845
8227
7965
8264
8048
8099
8252
7979
8452
7895
8594
7991
8698
7995
8471
8137
8332
8250
8167
8434
8211
8466
8184
8315
8231
8118
8291
7853
8241
7672
8218
7719
8149
7833
7995
8105
7982
8430
7995
8557
7986
8543
8054
8407
8146
8208
8237
8057
8287
7982
8187
7969
8054
8166
7981
8440
7908
8473
7836
8544
7914
8414
7939
8170
8084
7990
8178
7850
8212
7833
8208
8069
8329
8311
8110
8338
7963
8363
7959
8298
8066
8202
8234
7927
8215
7651
8259
7618
8312
7662
8157
7722
8007
8009
8087
8299
8064
8328
8153
8383
8344
8281
8484
8081
8512
7921
8490
7906
8403
8017
8247
8180
8081
8294
7864
8328
7831
8315
7683
7859
7520
7635
7703
7605
7979
7805
8217
8194
8525
8617
8404
8734
8278
8804
7996
8575
7847
8431
8007
8422
8275
8265
8364
8109
8394
7989
8270
8031
8189
8217
8108
8405
8033
8470
8008
8404
8057
8243
8190
8078
8358
7932
8503
7909
8575
7915
8411
7966
8233
8079
8031
8152
7942
8151
7901
8054
7945
7856
8005
7623
8071
7490
8089
7461
8087
7753
8212
8081
8156
8446
8219
8592
8039
8453
7976
8282
7948
7946
7968
7823
8080
7791
8174
8008
8281
8329
8357
8711
8310
8899
8292
8949
8113
8562
7872
8191
7876
7934
7995
7778
8051
7815
8146
7983
8176
8231
8114
8395
8051
8605
8026
8423
7970
8252
8195
8276
8517
8156
8602
7977
8557
7957
8464
7987
8269
8089
8073
8189
7999
8264
8026
8236
8146
8116
8271
7910
8368
7781
8427
7768
8393
7838
8242
7972
8070
8162
7941
8283
7889
8314
7898
8226
8021
8122
8144
7949
8207
7858
8201
7848
8080
7949
7909
8126
7766
8290
7712
8428
7759
8417
7856
8289
8006
8139
8144
7989
8197
7907
8164
7959
8069
8112
7985
8318
7942
8468
7943
8459
7911
8260
7976
8006
8025
7711
8105
7587
8129
7522
7999
7518
7855
7809
8071
8421
8337
8706
8578
8881
8702
8582
8620
8292
8739
8082
8659
7958
8613
7959
8410
8059
8215
8179
8005
8235
7916
8327
7974
8293
8090
8187
8291
8120
8435
8054
8448
8046
8343
8139
8170
8257
8010
8455
7911
8539
7842
8477
7870
8332
7951
8107
8046
7934
8116
7846
8067
7846
7963
8023
7951
8233
7826
8356
7785
8353
7779
8256
7933
8116
8110
7941
8239
7807
8289
7774
8295
7898
8227
8068
8138
8242
8059
8331
8013
8244
8071
8152
8238
8019
8368
7811
8452
7790
8539
7987
8602
8193
8445
8343
8253
8357
8024
8313
7922
8142
7928
7990
8060
7905
8234
7810
8228
7787
8244
8014
8205
8242
8079
8433
7982
8557
7901
8498
7859
8283
7846
8049
7961
7919
8140
8005
8314
8150
8357
8380
8305
8605
8171
8667
8011
8595
7944
8485
8047
8313
8190
8119
8302
7962
8392
7908
8354
7915
8182
7973
8005
8101
7899
8195
7880
8175
7939
8100
8098
7899
8240
7788
8397
7730
8422
7740
8339
7862
8213
8047
8081
8208
7997
8272
7965
8204
7998
8060
8144
7944
8295
7862
8371
7903
8411
8095
8353
8267
8142
8364
7944
8432
7815
8406
7858
8395
8008
8226
8111
8041
8192
7979
8207
7936
8090
8057
7963
8203
7869
8445
7860
8545
7923
8548
8059
8447
8224
8229
8334
8042
8373
7942
8361
7996
8302
8136
8145
8239
8011
8341
7989
8344
8051
8246
8191
8102
8357
7939
8494
7854
8524
7843
8450
7924
8298
8071
8135
8181
7984
8217
7915
8141
7961
8010
8073
7861
8217
7770
8291
7718
8229
7768
8120
7967
7988
8181
7873
8346
7850
8432
7891
8377
7993
8258
8167
8153
8284
8024
8276
8013
8228
8168
8138
8361
7996
8486
7872
8554
7887
8538
8008
8425
8153
8248
8288
8087
8338
7959
8328
7952
8194
8051
8091
8242
8009
8364
7942
8333
7962
8226
8088
8068
8247
7896
8402
7797
8451
7775
8389
7841
8258
8004
8121
8147
7993
8221
7970
8221
8062
8142
8203
7997
8368
7922
8497
7910
8477
7944
8341
8088
8150
8188
7918
8301
7837
8377
7851
8288
7894
8146
8091
8057
8177
7929
8233
7972
8207
8121
8146
8335
8025
8470
7856
8502
7797
8466
7861
8358
8033
8177
8138
7992
8244
7963
8337
8037
8281
8135
8128
8275
8019
8411
7972
8433
8050
8400
8187
8226
8313
8038
8491
7969
8596
7949
8544
7973
8362
8049
8156
8148
8008
8199
7949
8180
8010
8082
8131
7924
8264
7798
8375
7742
8348
7762
8225
7879
8071
8076
7916
8236
7835
8332
7882
8344
8017
8279
8179
8101
8247
7985
8316
8003
8284
8138
8251
8395
8122
8515
7955
8581
7864
8525
7877
8404
8011
8227
8129
8030
8192
7921
8245
7981
8200
8073
8069
8211
7908
8289
7829
8331
7827
8238
7961
8127
8170
7959
8299
7813
8383
7779
8378
7855
8294
8001
8177
8165
8056
8265
8023
8275
8111
8206
8240
8070
8409
7950
8525
7886
8530
7905
8431
8002
8246
8162
8088
8305
7961
8374
7935
8332
7986
8200
8096
8038
8223
7946
8280
7916
8232
7996
8099
8134
7924
8299
7795
8420
7745
8441
7805
8375
7940
8222
8095
8075
8214
8000
8288
8035
8246
8141
8127
8293
8012
8431
7948
8495
7961
8432
8050
8267
8211
8101
8370
7961
8467
7896
8440
7901
8312
7983
8147
8113
7992
8185
7938
8189
7986
8120
8126
7979
8277
7820
8388
7757
8444
7796
8393
7916
8249
8088
8088
8239
7966
8316
7925
8301
7999
8206
8139
8078
8291
7999
8391
7996
8399
8115
8304
8272
8128
8406
7949
8504
7859
8523
7875
8446
7976
8282
8111
8114
8205
7988
8218
7973
8180
8077
8078
8228
7919
8332
7801
8369
7782
8324
7888
8209
8066
8051
8244
7916
8368
7874
8398
7902
8322
8017
8192
8177
8072
8290
8017
8323
8096
8256
8219
8118
8366
7966
8497
7858
8536
7854
8487
7949
8334
8103
8171
8240
8016
8299
7953
8279
7986
8173
8118
8024
8236
7909
8321
7873
8293
7928
8182
8079
8022
8242
7858
8379
7784
8440
7814
8404
7927
8285
8097
8142
8225
8041
8292
8043
8252
8153
8155
8295
8010
8447
7910
8509
7891
8477
7954
8326
8094
8160
8259
8001
8360
7893
8368
7904
8283
7983
8139
8101
7989
8210
7930
8240
7966
8177
8086
8037
8232
7860
8376
7767
8462
7769
8424
7850
8302
8017
8151
8174
8024
8275
7979
8293
8035
8204
8162
8073
8324
7976
8416
7947
8434
8011
8335
8145
8169
8298
7993
8431
7881
8485
7870
8419
7922
8261
8032
8106
8157
7981
8208
7956
8183
8044
8072
8201
7921
8344
7804
8407
7756
8404
7837
8309
8010
8144
8174
8002
8308
7917
8363
7941
8316
8049
8198
8192
8065
8326
8008
8364
8040
8311
8154
8159
8302
7992
8456
7871
8527
7833
8490
7886
8364
8028
8187
8142
8022
8226
7954
8225
7978
8131
8101
7997
8240
7877
8354
7842
8367
7855
8251
7998
8116
8184
7950
8301
7806
8372
7802
8362
7896
8257
8050
8143
8195
8046
8303
8062
8315
8168
8213
8310
8078
8468
7937
8540
7863
8519
7910
8409
8039
8243
8195
8077
8298
7939
8326
7920
8259
7996
8107
8120
7976
8227
7887
8274
7898
8224
8011
8087
8175
7922
8336
7803
8441
7778
8437
7831
8329
7964
8195
8140
8071
8254
8014
8282
8056
8222
8196
8102
8348
7977
8465
7921
8493
7946
8406
8056
8244
8219
8067
8358
7936
8438
7888
8398
7931
8264
8021
8102
8151
7975
8232
7950
8214
8020
8113
8166
7952
8311
7808
8424
7758
8450
7795
8357
7922
8216
8105
8067
8259
7978
8329
7981
8299
8071
8200
8234
8056
8354
7984
8425
8005
8383
8107
8243
8244
8061
8394
7915
8502
7856
8504
7887
8395
7989
8217
8120
8059
8206
7976
8232
7993
8150
8104
8002
8236
7859
8361
7787
8398
7807
8346
7914
8204
8107
8048
8262
7908
8361
7872
8358
7928
8261
8062
8151
8225
8053
8338
8039
8349
8121
8250
8251
8093
8397
7939
8522
7865
8544
7872
8456
7951
8283
8090
8106
8213
7972
8254
7944
8221
7998
8109
8152
7983
8299
7901
8359
7878
8325
7974
8203
8120
8031
8288
7878
8415
7811
8425
7841
8363
7952
8230
8109
8097
8227
8031
8289
8055
8235
8174
8127
8339
7991
8490
7902
8532
7882
8475
7970
8308
8119
8140
8262
7980
8343
7903
8339
7921
8228
8019
8075
8145
7954
8253
7905
8242
7948
8142
8090
7997
8257
7842
8405
7764
8457
7779
8401
7867
8274
8047
8131
8203
8027
8296
8005
8280
8087
8187
8239
8065
8395
7974
8477
7953
8454
8025
8327
8163
8151
8319
7988
8438
7884
8456
7872
8369
7946
8213
8076
8054
8177
7963
8214
7969
8166
8083
8044
8234
7898
8375
7795
8445
7787
8430
7870
8298
8032
8141
8205
8012
8317
7944
8353
7984
8286
8100
8162
8247
8044
8369
7995
8387
8052
8304
8180
8153
8331
7980
8459
7860
8515
7839
8470
7918
8330
8044
8156
8157
8009
8223
7965
8195
7993
8095
8136
7961
8274
7840
8369
7802
8354
7864
8260
8016
8107
8192
7952
8339
7860
8409
7875
8374
7980
8266
8132
8129
8252
8040
8316
8047
8281
8166
8173
8317
8026
8470
7888
8533
7847
8518
7907
8386
8054
8214
8188
8045
8276
7936
8293
7936
8204
8028
8063
8176
7942
8288
7880
8305
7916
8235
8048
8101
8217
7931
8370
7810
8447
7791
8431
7877
8330
8023
8195
8177
8058
8263
8014
8275
8091
8203
8231
8077
8400
7958
8496
7888
8495
7932
8385
8054
8209
8211
8040
8339
7906
8378
7868
8320
7925
8184
8044
8045
8179
7946
8247
7953
8212
8044
8085
8189
7924
8342
7798
8443
7770
8452
7819
8348
7965
8203
8139
8080
8278
7992
8322
8016
8260
8112
8154
8284
8040
8416
7981
8455
8001
8372
8100
8215
8251
8045
8401
7895
8476
7839
8448
7878
8318
7982
8158
8114
8014
8202
7959
8206
8001
8115
8136
7967
8283
7846
8400
7791
8435
7820
8348
7956
8206
8132
8044
8282
7929
8367
7917
8351
7990
8245
8133
8120
8278
8020
8352
8026
8330
8119
8225
8270
8058
8422
7900
8515
7842
8526
7874
8430
7976
8245
8105
8077
8212
7963
8244
7952
8184
8041
8057
8194
7938
8329
7864
8375
7842
8297
7953
8172
8132
8011
8302
7866
8409
7824
8424
7887
8351
8019
8213
8167
8079
8278
8032
8311
8094
8228
8229
8100
8389
7948
8500
7863
8520
7875
8449
7979
8282
8136
8115
8263
7966
8321
7907
8303
7955
8183
8070
8043
8209
7942
8297
7919
8270
8002
8154
8128
7993
8291
7836
8423
7774
8457
7805
8395
7924
8256
8096
8128
8231
8024
8297
8027
8259
8138
8160
8289
8030
8438
7944
8495
7930
8440
8015
8290
8163
8119
8316
7963
8429
7869
8412
7878
8310
7963
8157
8107
8018
8203
7948
8218
7973
8145
8105
8013
8262
7866
8406
7781
8459
7780
8412
7884
8272
8057
8115
8217
7996
8307
7950
8315
8003
8224
8146
8104
8313
8017
8413
7998
8419
8077
8301
8205
8131
8354
7952
8480
7852
8495
7831
8418
7910
8253
8046
8102
8163
7980
8221
7968
8187
8048
8075
8202
7946
8341
7825
8409
7795
8365
7877
8255
8049
8097
8219
7948
8349
7879
8400
7912
8339
8014
8213
8173
8085
8298
8044
8352
8090
8279
8190
8147
8347
7974
8482
7860
8525
7821
8476
7923
8343
8058
8153
8181
7986
8260
7927
8251
7950
8151
8074
8014
8230
7918
8331
7881
8332
7940
8227
8082
8075
8253
7908
8419
7832
8466
7826
8415
7918
8282
8075
8147
8212
8044
8292
8041
8272
8145
8186
8292
8026
8438
7906
8500
7866
8476
7934
8350
8085
8179
8242
8012
8340
7895
8368
7893
8285
7973
8142
8104
8006
8222
7937
8252
7952
8192
8074
8060
8232
7882
8383
7777
8466
7777
8443
7842
8323
8012
8174
8172
8051
8277
7986
8301
8039
8225
8181
8110
8340
7995
8436
7948
8445
7991
8346
8119
8178
8279
8004
8398
7877
8468
7847
8410
7898
8255
8014
8094
8143
7980
8215
7963
8197
8037
8082
8178
7933
8329
7815
8425
7774
8425
7829
8324
7998
8176
8179
8027
8308
7932
8372
7948
8331
8043
8208
8201
8083
8329
8020
8387
8031
8321
8138
8180
8289
8006
8434
7875
8518
7829
8495
7879
8369
8007
8193
8131
8030
8222
7961
8243
7993
8159
8110
8019
8247
7892
8356
7832
8384
7865
8299
8004
8152
8185
7996
8333
7870
8424
7858
8414
7933
8304
8065
8168
8217
8056
8317
8053
8298
8134
8205
8279
8065
8428
7909
8511
7848
8516
7878
8417
8009
8240
8150
8061
8261
7930
8300
7907
8248
7988
8125
8124
7987
8251
7896
8301
7902
8247
8013
8128
8175
7961
8330
7821
8446
7778
8449
7834
8351
7964
8227
8138
8093
8255
8025
8305
8072
8233
8180
8113
8340
7977
8455
7900
8493
7921
8419
8045
8269
8197
8093
8335
7916
8399
7861
8372
7907
8254
8010
8104
8142
7971
8223
7937
8214
8001
8123
8146
7964
8309
7823
8434
7768
8455
7793
8380
7929
8249
8110
8111
8258
8007
8342
7989
8315
8074
8202
8227
8076
8367
7994
8434
7987
8382
8072
8248
8218
8073
8368
7920
8481
7839
8473
7842
8370
7946
8204
8078
8048
8186
7968
8231
7986
8156
8100
8022
8240
7885
8375
7800
8422
7797
8360
7912
8235
8094
8068
8268
7946
8379
7898
8397
7960
8312
8079
8182
8245
8074
8341
8044
8363
8107
8266
8244
8107
8390
7939
8512
7848
8534
7854
8468
7940
8284
8076
8098
8187
7957
8237
7915
8207
7989
8099
8128
7960
8257
7863
8338
7844
8302
7922
8192
8106
8043
8279
7886
8409
7820
8445
7856
8384
7974
8255
8134
8131
8263
8057
8323
8075
8269
8199
8149
8355
7991
8467
7878
8515
7864
8467
7950
8315
8109
8140
8238
7964
8322
7888
8325
7907
8223
8016
8087
8156
7958
8256
7920
8262
7963
8182
8112
8047
8283
7880
8422
7782
8478
7795
8437
7908
8312
8074
8164
8209
8040
8303
8013
8297
8099
8207
8247
8079
8398
7976
8469
7932
8439
7993
8311
8133
8138
8287
7978
8399
7856
8428
7846
8349
7918
8204
8056
8052
8185
7970
8226
7968
8176
8077
8051
8219
7899
8376
7797
8448
7780
8423
7854
8316
8030
8158
8200
8022
8314
7939
8353
7982
8296
8106
8188
8263
8061
8380
8006
8409
8048
8312
8156
8152
8304
7980
8453
7852
8507
7814
8439
7861
8303
7997
8123
8126
7980
8209
7944
8206
8008
8119
8146
7971
8284
7862
8394
7824
8404
7877
8293
8031
8137
8196
7980
8341
7875
8420
7890
8387
7980
8264
8120
8139
8270
8054
8345
8070
8308
8176
8198
8311
8026
8452
7887
8527
7839
8505
7887
8374
8003
8190
8141
8025
8245
7915
8273
7929
8202
8029
8074
8173
7948
8283
7875
8311
7898
8238
8016
8104
8197
7943
8354
7821
8459
7810
8452
7892
8361
8023
8198
8176
8069
8275
8034
8298
8089
8224
8248
8101
8409
7959
8496
7888
8500
7927
8412
8053
8237
8196
8051
8311
7899
8372
7866
8322
7922
8189
8043
8050
8181
7950
8260
7946
8224
8036
8109
8183
7950
8343
7819
8450
7771
8465
7808
8365
7959
8226
8129
8088
8264
7996
8326
8014
8292
8137
8176
8298
8060
8425
7982
8456
7980
8368
8066
8219
8226
8043
8374
7899
8459
7828
8432
7852
8302
7957
8150
8098
8016
8199
7955
8206
7993
8127
8125
7980
8269
7857
8404
7790
8440
7810
8364
7947
8237
8130
8087
8298
7966
8385
7932
8364
8003
8266
8149
8155
8297
8050
8378
8027
8350
8108
8230
8239
8066
8394
7908
8499
7825
8510
7838
8412
7934
8244
8079
8067
8195
7957
8233
7951
8191
8035
8067
8183
7939
8320
7858
8373
7848
8318
7953
8192
8120
8031
8294
7888
8411
7844
8436
7892
8361
8016
8226
8177
8117
8306
8056
8337
8109
8257
8227
8121
8377
7967
8493
7864
8524
7858
8459
7949
8283
8095
8107
8229
7941
8294
7887
8281
7938
8177
8049
8041
8195
7930
8287
7896
8269
7961
8172
8118
8019
8287
7859
8430
7790
8470
7818
8423
7926
8289
8095
8143
8229
8049
8315
8051
8299
8150
8191
8299
8058
8443
7952
8497
7912
8443
7984
8305
8131
8133
8287
7950
8369
7851
8389
7866
8304
7948
8159
8087
8023
8203
7945
8223
7968
8167
8099
8043
8262
7892
8416
7800
8471
7792
8435
7876
8311
8055
8156
8213
8027
8319
7967
8329
8018
8250
8160
8137
8317
8020
8406
7978
8395
8018
8282
8148
8125
8311
7952
8449
7845
8477
7823
8423
7896
8268
8035
8115
8158
7989
8223
7969
8205
8046
8099
8186
7946
8340
7836
8414
7809
8402
7887
8304
8044
8139
8209
7983
8348
7903
8401
7918
8354
8025
8246
8186
8132
8317
8047
8358
8060
8293
8157
8151
8310
7978
8452
7858
8518
7824
8487
7875
8335
7999
8158
8132
7998
8234
7927
8252
7962
8177
8084
8043
8218
7918
8324
7857
8336
7902
8261
8047
8110
8216
7948
8364
7836
8454
7829
8431
7923
8317
8069
8184
8209
8080
8313
8061
8312
8150
8212
8287
8068
8419
7919
8508
7865
8498
7903
8385
8033
8211
8173
8023
8289
7887
8327
7872
8275
7952
8161
8086
8016
8222
7934
8272
7942
8234
8050
8101
8207
7943
8362
7813
8461
7782
8465
7853
8362
7983
8219
8151
8083
8264
8007
8319
8053
8259
8187
8151
8340
8016
8441
7942
8467
7965
8381
8080
8230
8232
8043
8359
7872
8423
7826
8392
7868
8263
7980
8122
8134
7996
8222
7963
8213
8020
8116
8154
7962
8310
7836
8436
7786
8454
7819
8371
7971
8230
8142
8076
8282
7962
8356
7951
8340
8046
8241
8195
8111
8340
8028
8405
8016
8354
8108
8222
8244
8055
8393
7891
8494
7817
8484
7832
8366
7929
8190
8074
8044
8188
7954
8231
7974
8168
8072
8033
8218
7898
8350
7824
8395
7832
8336
7954
8208
8138
8046
8309
7918
8420
7881
8426
7933
8342
8066
8209
8232
8094
8337
8057
8338
8115
8227
8234
8086
8379
7918
8495
7834
8514
7849
8437
7939
8250
8068
8063
8196
7934
8259
7900
8257
7980
8156
8124
8013
8253
7925
8334
7905
8307
7993
8183
8139
8024
8313
7867
8441
7815
8476
7845
8414
7965
8262
8122
8134
8254
8055
8326
8075
8281
8191
8164
8332
8012
8453
7905
8498
7891
8436
7979
8287
8123
8097
8261
7930
8344
7847
8344
7876
8245
7981
8119
8133
7989
8236
7938
8240
7977
8157
8115
8016
8275
7856
8423
7787
8475
7793
8432
7903
8298
8076
8143
8223
8020
8321
8005
8328
8072
8239
8230
8122
8377
8006
8448
7966
8414
8029
8289
8167
8110
8322
7940
8435
7828
8450
7820
8362
7891
8207
8024
8052
8156
7967
8223
7977
8180
8084
8065
8224
7918
8369
7816
8443
7805
8416
7880
8275
8050
8128
8225
7997
8357
7924
8393
7960
8336
8092
8226
8247
8102
8365
8044
8387
8085
8293
8190
8137
8344
7974
8484
7856
8527
7822
8452
7864
8293
8004
8117
8137
7978
8228
7944
8237
7988
8131
8117
7988
8247
7875
8351
7840
8350
7916
8264
8068
8112
8251
7949
8390
7854
8448
7868
8409
7959
8280
8100
8151
8231
8049
8322
8073
8291
8166
8175
8298
8001
8438
7884
8516
7843
8486
7906
8345
8034
8159
8171
7991
8271
7894
8305
7905
8236
7994
8111
8147
7983
8265
7918
8282
7935
8210
8054
8075
8222
7911
8382
7805
8476
7797
8466
7884
8348
8036
8201
8184
8084
8314
8052
8326
8104
8253
8240
8117
8388
7980
8473
7925
8473
7959
8363
8080
8197
8229
8005
8336
7853
8392
7826
8345
7896
8224
8026
8069
8161
7969
8233
7959
8203
8049
8098
8201
7950
8353
7823
8456
7779
8457
7833
8363
7995
8215
8161
8067
8294
7979
8359
8001
8331
8112
8223
8266
8083
8398
8003
8422
8001
8337
8105
8195
8255
8017
8396
7858
8475
7799
8439
7834
8318
7949
8153
8101
8019
8200
7955
8219
8003
8146
8127
8006
8272
7875
8391
7816
8415
7841
8326
7972
8192
8160
8042
8319
7918
8413
7896
8395
7974
8313
8133
8182
8277
8089
8366
8067
8346
8130
8206
8254
8045
8408
7893
8501
7826
8506
7837
8382
7923
8204
8074
8041
8209
7936
8260
7933
8218
8022
8089
8159
7964
8292
7879
8339
7887
8298
8001
8171
8168
8012
8332
7872
8461
7835
8471
7879
8380
8003
8243
8168
8124
8296
8068
8330
8103
8249
8225
8119
8363
7959
8470
7876
8503
7880
8423
7978
8252
8122
8066
8249
7908
8326
7854
8308
7911
8216
8035
8077
8179
7968
8268
7936
8254
8005
8152
8161
8008
8317
7856
8451
7795
8486
7821
8425
7936
8280
8100
8127
8241
8028
8330
8035
8308
8138
8212
8275
8066
8407
7965
8459
7940
8414
8023
8262
8166
8083
8318
7906
8419
7827
8410
7824
8317
7926
8167
8085
8037
8190
7963
8220
7985
8156
8105
8026
8265
7891
8401
7796
8452
7792
8406
7903
8280
8090
8135
8259
7992
8360
7938
8373
8006
8307
8149
8182
8304
8065
8384
8020
8382
8076
8263
8193
8096
8343
7931
8467
7816
8491
7801
8413
7888
8250
8031
8099
8172
7984
8234
7959
8205
8033
8100
8167
7964
8313
7863
8390
7838
8360
7907
8249
8080
8091
8253
7934
8387
7864
8434
7894
8382
8006
8264
8169
8143
8309
8074
8350
8091
8281
8190
8134
8329
7974
8474
7861
8517
7831
8456
7886
8306
8024
8120
8160
7961
8256
7899
8288
7939
8201
8047
8060
8188
7944
8295
7893
8304
7939
8218
8084
8073
8255
7902
8408
7813
8485
7822
8449
7905
8310
8051
8165
8205
8071
8315
8066
8320
8152
8217
8273
8057
8407
7931
8477
7883
8455
7937
8337
8072
8155
8215
7979
8326
7849
8358
7849
8314
7942
8185
8074
8040
8202
7954
8245
7966
8195
8068
8075
8231
7913
8378
7794
8462
7785
8459
7848
8344
8016
8195
8183
8059
8300
8001
8361
8051
8318
8188
8195
8335
8059
8437
7997
8446
8006
8334
8113
8164
8262
7989
8392
7830
8449
7803
8398
7843
8264
7970
8114
8129
7999
8210
7959
8194
8019
8104
8158
7959
8310
7857
8426
7805
8434
7854
8339
8009
8193
8191
8046
8333
7935
8408
7935
8376
8024
8263
8183
8147
8324
8064
8380
8047
8316
8133
8181
8277
8017
8426
7873
8497
7802
8476
7828
8349
7947
8177
8101
8024
8208
7935
8249
7957
8181
8062
8055
8211
7922
8326
7867
8369
7886
8298
8021
8157
8191
8003
8351
7862
8450
7849
8451
7915
8357
8057
8230
8227
8131
8343
8085
8343
8141
8231
8253
8072
8389
7922
8493
7846
8501
7870
8392
7963
8211
8114
8036
8242
7901
8299
7877
8282
7953
8173
8081
8034
8223
7939
8285
7918
8252
8024
8139
8173
7983
8332
7835
8460
7799
8491
7846
8415
7977
8265
8140
8129
8275
8052
8339
8070
8294
8183
8180
8332
8023
8436
7929
8462
7930
8390
8020
8242
8163
8052
8298
7875
8378
7812
8382
7857
8278
7970
8136
8118
8011
8212
7959
8218
8002
8143
8142
8015
8299
7867
8433
7793
8477
7811
8416
7926
8274
8111
8117
8260
8001
8357
7977
8357
8050
8267
8201
8140
8343
8026
8405
7993
8360
8060
8243
8195
8070
8345
7887
8443
7790
8456
7798
8370
7893
8211
8053
8073
8180
7975
8227
7979
8193
8071
8065
8218
7935
8361
7848
8423
7847
8380
7929
8253
8104
8095
8274
7949
8396
7888
8418
7933
8361
8064
8237
8228
8125
8341
8062
8354
8092
8253
8195
8098
8342
7938
8479
7835
8515
7824
8431
7881
8264
8021
8095
8168
7955
8252
7923
8258
7963
8149
8092
8021
8229
7913
8325
7882
8312
7947
8216
8109
8067
8281
7904
8428
7833
8481
7848
8423
7945
8303
8118
8177
8260
8094
8346
8090
8310
8174
8170
8304
8015
8429
7906
8498
7864
8463
7921
8307
8067
8113
8195
7924
8293
7841
8327
7862
8254
7980
8139
8124
8014
8242
7946
8271
7981
8200
8103
8059
8262
7897
8410
7802
8484
7809
8471
7908
8361
8070
8207
8221
8082
8339
8034
8346
8092
8268
8227
8136
8363
8002
8433
7941
8428
7981
8309
8108
8140
8249
7933
8366
7804
8411
7793
8359
7868
8230
8016
8095
8154
7983
8237
7975
8195
8054
8094
8201
7939
8352
7824
8447
7794
8438
7861
8338
8033
8183
8207
8034
8336
7951
8395
7973
8356
8087
8241
8237
8114
8362
8031
8379
8035
8300
8142
8155
8288
7987
8427
7839
8482
7783
8437
7826
8301
7957
8139
8108
8007
8224
7958
8244
7990
8156
8114
8024
8254
7902
8370
7849
8384
7879
8295
8026
8154
8210
8010
8363
7896
8454
7880
8424
7951
8335
8120
8202
8259
8099
8345
8071
8311
8149
8195
8266
8034
8409
7882
8495
7823
8481
7839
8356
7958
8178
8110
8008
8228
7899
8295
7907
8260
8002
8144
8143
7998
8258
7912
8310
7919
8256
8032
8135
8189
7963
8357
7836
8476
7810
8478
7863
8394
8001
8246
8176
8127
8296
8074
8341
8105
8270
8214
8124
8349
7973
8446
7896
8467
7906
8383
8009
8204
8146
8024
8279
7867
8364
7823
8342
7890
8243
8010
8107
8154
7983
8254
7960
8233
8027
8141
8167
7981
8331
7855
8454
7792
8492
7834
8421
7978
8273
8128
8117
8282
8022
8368
8024
8354
8108
8244
8255
8097
8374
7991
8421
7971
8359
8056
8233
8202
8045
8332
7852
8425
7776
8419
7811
8338
7920
8190
8072
8041
8191
7973
8234
7990
8166
8106
8028
8255
7902
8389
7824
8438
7825
8386
7951
8253
8121
8097
8281
7958
8390
7915
8407
7990
8338
8129
8211
8268
8097
8358
8035
8347
8088
8232
8211
8078
8356
7914
8473
7803
8483
7776
8389
7863
8228
8027
8070
8168
7959
8253
7939
8243
8012
8130
8159
7991
8291
7893
8364
7877
8337
7955
8222
8117
8063
8294
7912
8434
7854
8468
7872
8407
7993
8290
8163
8174
8315
8095
8360
8106
8284
8188
8143
8326
7989
8467
7879
8504
7856
8445
7900
8279
8047
8084
8183
7931
8287
7875
8311
7914
8235
8024
8093
8156
7970
8271
7926
8279
7973
8200
8115
8058
8281
7883
8432
7810
8485
7808
8451
7905
8318
8074
8184
8238
8088
8337
8058
8330
8137
8234
8249
8078
8378
7957
8453
7910
8431
7967
8300
8087
8105
8226
7912
8344
7806
8391
7811
8334
7908
8207
8052
8065
8191
7985
8248
7986
8206
8095
8081
8233
7923
8379
7801
8450
7780
8447
7879
8350
8049
8188
8209
8045
8328
7981
8386
8011
8340
8154
8218
8306
8082
8394
8001
8391
8014
8291
8128
8144
8283
7945
8398
7804
8453
7773
8413
7843
8285
7985
8140
8132
8007
8222
7964
8221
8014
8129
8148
7985
8298
7875
8403
7835
8405
7883
8319
8046
8169
8220
8017
8368
7910
8441
7912
8415
8014
8310
8171
8180
8303
8080
8354
8067
8305
8144
8163
8282
7996
8426
7858
8495
7793
8457
7822
8326
7952
8160
8111
8010
8233
7917
8278
7932
8208
8027
8081
8181
7966
8315
7901
8341
7924
8266
8043
8131
8213
7967
8375
7854
8485
7833
8466
7901
8378
8060
8243
8218
8140
8335
8088
8349
8139
8245
8245
8087
8379
7938
8465
7873
8484
7894
8374
8009
8191
8145
7997
8251
7848
8334
7839
8305
7917
8197
8046
8053
8196
7968
8266
7961
8242
8054
8136
8198
7972
8349
7828
8465
7793
8481
7846
8403
7977
8254
8152
8120
8298
8042
8362
8052
8319
8156
8189
8278
8045
8394
7953
8432
7952
8361
8059
8208
8190
8007
8314
7837
8401
7779
8390
7832
8295
7945
8158
8101
8017
8207
7966
8220
8015
8148
8136
8009
8292
7876
8412
7803
8452
7831
8389
7969
8258
8142
8097
8294
7970
8396
7963
8397
8038
8327
8184
8181
8316
8063
8378
8020
8340
8091
8220
8222
8044
8352
7861
8447
7771
8455
7779
8351
7880
8212
8055
8064
8186
7960
8240
7965
8199
8047
8082
8195
7959
8337
7871
8401
7873
8348
7984
8230
8144
8062
8310
7923
8437
7870
8459
7916
8398
8050
8269
8215
8149
8330
8076
8338
8101
8248
8207
8100
8343
7937
8470
7839
8492
7826
8417
7892
8254
8059
8073
8199
7934
8282
7893
8290
7948
8195
8072
8052
8212
7951
8300
7915
8282
7983
8192
8134
8038
8309
7882
8450
7817
8497
7839
8439
7952
8309
8128
8175
8269
8086
8345
8084
8315
8158
8187
8285
8026
8414
7920
8468
7896
8424
7952
8262
8088
8073
8235
7898
8342
7820
8370
7844
8300
7958
8156
8099
8027
8205
7957
8247
7997
8177
8110
8042
8267
7887
8413
7799
8484
7816
8456
7918
8323
8080
8173
8251
8056
8369
8013
8391
8070
8302
8203
8156
8329
8024
8398
7966
8385
8019
8273
8147
8096
8286
7899
8403
7783
8433
7780
8371
7864
8242
8015
8100
8165
7992
8223
7974
8202
8051
8097
8205
7955
8349
7853
8428
7830
8420
7912
8312
8077
8150
8241
8000
8369
7923
8437
7955
8395
8076
8279
8225
8148
8338
8050
8357
8060
8280
8170
8126
8303
7951
8428
7816
8470
7768
8416
7817
8274
7973
8122
8130
7980
8237
7928
8262
7978
8183
8094
8053
8236
7934
8346
7881
8340
7934
8263
8072
8114
8249
7955
8398
7859
8481
7852
8462
7952
8351
8112
8209
8256
8113
8350
8084
8319
8146
8190
8268
8025
8408
7896
8479
7836
8446
7861
8317
7999
8132
8150
7977
8277
7877
8331
7871
8272
7961
8149
8096
8016
8228
7943
8272
7964
8232
8074
8101
8231
7946
8400
7836
8503
7817
8484
7882
8380
8038
8243
8212
8122
8328
8062
8368
8100
8296
8210
8148
8342
7997
8427
7922
8430
7941
8318
8046
8144
8189
7958
8322
7814
8389
7797
8380
7868
8261
8009
8116
8142
7998
8225
7969
8214
8040
8120
8194
7974
8337
7844
8450
7797
8470
7854
8373
8006
8226
8175
8076
8327
7992
8411
8007
8388
8100
8273
8236
8122
8349
8021
8379
8005
8315
8104
8176
8232
7984
8361
7826
8456
7775
8440
7819
8328
7942
8173
8091
8024
8205
7963
8239
7984
8170
8105
8043
8252
7920
8376
7848
8403
7874
8339
8017
8204
8188
8049
8346
7919
8451
7885
8446
7968
8360
8123
8233
8259
8107
8345
8055
8318
8109
8203
8236
8044
8375
7888
8468
7795
8462
7795
8356
7901
8193
8073
8039
8215
7920
8278
7909
8261
7994
8155
8143
8021
8270
7926
8324
7917
8285
8019
8163
8176
8009
8348
7864
8463
7816
8484
7862
8408
8009
8287
8178
8167
8304
8088
8358
8108
8283
8202
8137
8326
7971
8433
7880
8459
7872
8375
7954
8214
8104
8032
8245
7871
8342
7836
8347
7886
8253
8008
8123
8151
8001
8252
7959
8243
8013
8156
8159
8016
8324
7872
8456
7803
8494
7831
8435
7939
8284
8119
8155
8282
8053
8383
8038
8361
8113
8248
8239
8094
8360
7984
8413
7948
8362
8020
8226
8139
8037
8293
7856
8391
7768
8403
7791
8335
7909
8204
8066
8054
8191
7977
8231
7984
8166
8095
8059
8254
7924
8405
7849
8466
7848
8432
7952
8293
8115
8132
8270
7990
8394
7940
8419
7997
8357
8130
8227
8263
8095
8360
8029
8354
8075
8243
8195
8094
8330
7909
8444
7793
8468
7765
8402
7850
8247
8020
8087
8163
7971
8249
7947
8246
8010
8149
8153
8004
8294
7902
8378
7871
8351
7951
8246
8109
8094
8285
7948
8432
7866
8485
7896
8443
8006
8316
8164
8184
8280
8072
8313
8061
8257
8153
8129
8293
7977
8430
7845
8478
7807
8425
7865
8278
8014
8101
8164
7952
8286
7890
8321
7914
8241
8020
8098
8161
7986
8284
7936
8294
7978
8236
8119
8088
8280
7927
8424
7821
8497
7814
8458
7902
8349
8082
8213
8244
8120
8346
8065
8338
8114
8226
8232
8076
8363
7950
8443
7896
8425
7921
8284
8046
8108
8196
7918
8322
7813
8384
7814
8345
7906
8219
8045
8079
8181
7988
8254
7986
8213
8084
8112
8238
7949
8392
7840
8480
7808
8465
7870
8356
8031
8211
8204
8085
8345
8010
8404
8037
8353
8143
8210
8271
8070
8370
7982
8388
7995
8300
8100
8138
8240
7932
8359
7795
8434
7767
8405
7835
8296
7967
8150
8122
8016
8218
7971
8226
8013
8147
8152
8007
8300
7888
8406
7837
8426
7889
8344
8035
8191
8199
8030
8349
7929
8448
7932
8430
8028
8344
8169
8195
8306
8077
8351
8048
8297
8130
8172
8259
8003
8381
7833
8449
7758
8427
7790
8320
7917
8178
8093
8023
8225
7930
8279
7941
8224
8032
8111
8187
7978
8320
7913
8357
7924
8305
8051
8167
8209
8003
8365
7858
8470
7836
8473
7906
8400
8058
8264
8211
8130
8318
8070
8319
8103
8229
8211
8080
8357
7929
8452
7846
8460
7840
8343
7949
8185
8118
8020
8259
7889
8347
7864
8320
7922
8215
8051
8070
8191
7970
8272
7955
8249
8038
8144
8186
7999
8353
7863
8482
7816
8505
7851
8423
7980
8285
8163
8147
8305
8063
8379
8060
8322
8146
8194
8262
8033
8388
7947
8429
7936
8344
8006
8182
8142
7996
8288
7837
8392
7786
8394
7829
8306
7946
8169
8109
8036
8209
7980
8231
8014
8161
8143
8041
8296
7895
8433
7826
8479
7855
8426
7978
8281
8136
8117
8293
7994
8397
7978
8412
8051
8332
8171
8176
8295
8044
8356
7997
8323
8060
8214
8185
8039
8330
7855
8431
7769
8446
7773
8371
7891
8233
8048
8073
8185
7970
8242
7960
8212
8049
8103
8198
7966
8342
7871
8400
7872
8366
7987
8246
8135
8084
8311
7944
8446
7899
8486
7943
8431
8076
8303
8233
8166
8328
8078
8340
8084
8249
8202
8104
8330
7922
8441
7805
8454
7779
8374
7855
8232
8019
8076
8182
7934
8276
7892
8288
7938
8194
8067
8069
8220
7968
8322
7933
8307
7988
8210
8137
8064
8309
7900
8437
7809
8489
7835
8447
7953
8327
8129
8207
8283
8112
8360
8078
8310
8146
8171
8263
8018
8391
7902
8440
7861
8393
7911
8239
8053
8071
8215
7900
8331
7830
8362
7850
8302
7954
8168
8095
8037
8217
7970
8248
7998
8197
8118
8068
8277
7913
8430
7826
8501
7820
8467
7910
8349
8080
8204
8256
8077
8370
8031
8389
8077
8311
8182
8154
8309
8013
8383
7948
8382
7986
8264
8102
8088
8244
7898
8367
7789
8435
7777
8383
7870
8253
8003
8100
8145
7996
8229
7983
8218
8065
8120
8212
7976
8357
7865
8448
7840
8439
7893
8333
8061
8172
8238
8037
8381
7949
8444
7973
8410
8072
8282
8207
8137
8317
8038
8342
8042
8271
8138
8133
8273
7948
8401
7812
8465
7765
8418
7806
8289
7958
8138
8124
8002
8231
7936
8256
7962
8183
8087
8055
8239
7941
8347
7884
8366
7931
8291
8070
8152
8241
7991
8395
7877
8491
7879
8479
7960
8380
8116
8234
8255
8110
8335
8070
8306
8133
8192
8250
8028
8386
7879
8461
7811
8439
7828
8318
7961
8155
8128
8001
8264
7891
8331
7885
8292
7974
8173
8117
8038
8241
7961
8304
7963
8255
8068
8128
8223
7974
8372
7828
8482
7813
8491
7881
8414
8032
8257
8198
8136
8320
8064
8350
8078
8271
8172
8132
8299
7983
8409
7906
8424
7909
8327
8009
8156
8148
7967
8293
7835
8397
7811
8380
7867
8267
7997
8133
8145
8024
8246
7989
8242
8045
8148
8189
7996
8344
7878
8466
7822
8492
7858
8403
7992
8268
8171
8125
8328
8016
8407
8006
8382
8081
8263
8205
8110
8328
8004
8376
7982
8315
8066
8186
8191
7992
8328
7815
8419
7756
8424
7805
8339
7924
8200
8083
8056
8198
7971
8247
7988
8181
8104
8057
8245
7932
8378
7859
8434
7879
8368
7991
8237
8159
8081
8321
7948
8445
7912
8457
7972
8382
8114
8249
8248
8112
8337
8051
8325
8096
8219
8206
8056
8333
7877
8438
7773
8442
7768
8362
7875
8223
8048
8071
8198
7942
8270
7918
8268
7986
8166
8125
8022
8255
7935
8345
7922
8329
8013
8221
8163
8067
8334
7902
8455
7835
8492
7875
8436
7989
8318
8169
8189
8294
8088
8333
8076
8264
8166
8140
8294
7983
8419
7871
8458
7839
8384
7903
8241
8068
8072
8229
7924
8326
7862
8357
7894
8269
7992
8138
8140
8011
8253
7968
8267
8009
8198
8143
8063
8306
7908
8453
7821
8502
7829
8467
7928
8345
8104
8197
8269
8087
8367
8047
8357
8088
8247
8211
8097
8345
7984
8414
7928
8377
7962
8239
8084
8062
8231
7864
8348
7772
8397
7791
8357
7892
8227
8042
8093
8179
8002
8247
7992
8201
8086
8087
8233
7946
8382
7831
8457
7818
8441
7892
8325
8080
8180
8256
8052
8399
7990
8441
8011
8380
8113
8236
8246
8095
8342
8021
8360
8037
8266
8136
8098
8271
7904
8397
7778
8448
7757
8413
7829
8291
7995
8137
8142
8000
8228
7952
8245
8005
8152
8136
8018
8278
7909
8384
7876
8394
7939
8308
8089
8154
8260
8006
8408
7905
8484
7910
8461
8003
8357
8152
8202
8270
8090
8329
8058
8275
8131
8155
8262
7980
8387
7832
8445
7771
8417
7816
8300
7961
8134
8129
7990
8250
7900
8307
7913
8261
8017
8140
8171
8013
8294
7943
8333
7965
8259
8095
8139
8252
7973
8399
7834
8486
7817
8482
7907
8400
8078
8267
8234
8140
8336
8071
8334
8096
8230
8209
8091
8344
7951
8425
7865
8417
7874
8301
7994
8140
8154
7963
8298
7843
8378
7826
8344
7903
8237
8033
8105
8179
7993
8258
7981
8231
8073
8133
8210
7974
8379
7858
8476
7812
8489
7873
8404
8022
8274
8195
8133
8346
8041
8408
8034
8346
8114
8214
8241
8061
8351
7967
8385
7961
8297
8044
8143
8184
7956
8317
7808
8411
7760
8414
7821
8310
7943
8170
8105
8036
8207
7981
8247
8015
8165
8141
8032
8290
7906
8413
7839
8448
7876
8365
8002
8226
8174
8075
8339
7963
8445
7954
8450
8030
8358
8161
8202
8278
8080
8344
8033
8310
8098
8186
8207
8001
8333
7828
8433
7755
8438
7776
8354
7904
8206
8077
8059
8210
7957
8264
7948
8235
8038
8133
8188
7995
8315
7905
8365
7911
8323
8020
8203
8184
8044
8357
7910
8476
7865
8503
7924
8435
8050
8289
8200
8159
8311
8070
8315
8078
8226
8187
8086
8316
7926
8425
7828
8437
7813
8359
7903
8210
8079
8044
8235
7917
8312
7861
8318
7915
8219
8045
8087
8193
7987
8284
7956
8265
8024
8172
8169
8031
8340
7892
8472
7824
8509
7848
8463
7980
8323
8155
8187
8300
8090
8359
8056
8315
8130
8189
8245
8039
8372
7933
8411
7890
8341
7967
8206
8100
8026
8250
7869
8381
7790
8398
7827
8333
7938
8189
8097
8054
8208
7986
8242
8011
8180
8128
8058
8285
7913
8429
7834
8491
7839
8448
7941
8312
8119
8165
8283
8044
8406
8005
8424
8038
8328
8156
8171
8272
8047
8359
7993
8347
8029
8210
8126
8034
8274
7857
8401
7755
8435
7770
8384
7871
8253
8031
8100
8168
7991
8242
7979
8228
8043
8118
8189
7977
8333
7884
8421
7875
8400
7950
8284
8115
8124
8290
7991
8440
7916
8489
7945
8433
8053
8294
8198
8157
8312
8066
8331
8070
8252
8168
8109
8284
7915
8402
7797
8450
7761
8403
7846
8273
8000
8101
8152
7951
8259
7899
8289
7954
8215
8070
8081
8216
7968
8313
7920
8318
7977
8241
8115
8097
8296
7941
8443
7852
8520
7866
8483
7962
8375
8125
8230
8262
8107
8335
8068
8310
8137
8183
8248
8025
8371
7886
8426
7831
8389
7873
8257
8017
8088
8181
7924
8313
7839
8361
7851
8317
7952
8196
8105
8062
8238
7994
8285
8000
8221
8118
8101
8260
7947
8424
7845
8502
7821
8486
7900
8378
8070
8232
8241
8118
8369
8035
8380
8051
8292
8156
8144
8281
8007
8384
7938
8373
7947
8262
8056
8090
8200
7902
8345
7791
8421
7781
8390
7853
8269
7991
8124
8142
8011
8229
7986
8222
8047
8124
8192
7984
8348
7873
8446
7842
8455
7893
8355
8048
8214
8238
8078
8378
7981
8457
7986
8412
8058
8287
8190
8139
8305
8037
8345
8024
8272
8097
8123
8222
7941
8358
7793
8441
7757
8428
7801
8319
7944
8171
8107
8029
8221
7949
8264
7977
8205
8098
8086
8250
7962
8361
7900
8395
7926
8318
8062
8180
8227
8025
8387
7904
8491
7889
8494
7968
8399
8109
8241
8238
8108
8329
8058
8313
8117
8204
8231
8020
8340
7861
8427
7783
8415
7787
8304
7907
8155
8095
8002
8240
7892
8319
7886
8298
7973
8191
8117
8052
8242
7968
8318
7968
8277
8077
8167
8222
8009
8370
7864
8487
7827
8511
7895
8441
8038
8305
8200
8164
8312
8071
8354
8075
8274
8169
8137
8288
7987
8391
7879
8402
7874
8322
7959
8159
8120
7984
8277
7844
8375
7813
8382
7861
8284
7986
8151
8146
8029
8248
7982
8249
8039
8159
8186
8031
8336
7894
8467
7826
8493
7854
8430
7987
8295
8166
8155
8324
8045
8411
8010
8386
8069
8250
8190
8109
8313
8001
8368
7966
8319
8032
8178
8156
8002
8298
7823
8414
7764
8437
7794
8356
7907
8205
8069
8073
8196
7984
8253
7995
8198
8095
8064
8234
7946
8381
7870
8448
7889
8401
7994
8267
8167
8128
8350
8011
8472
7959
8494
8007
8413
8122
8258
8235
8105
8325
8041
8319
8075
8212
8175
8036
8294
7848
8397
7751
8423
7746
8353
7845
8218
8022
8064
8179
7957
8270
7929
8279
8016
8199
8151
8052
8282
7937
8347
7918
8335
8018
8244
8179
8100
8356
7955
8498
7882
8535
7911
8479
8020
8341
8168
8190
8285
8087
8339
8087
8287
8180
8158
8291
7966
8380
7830
8412
7787
8337
7843
8185
7991
8009
8146
7845
8257
7794
8319
7883
8298
8019
8159
8145
8000
8222
7945
8251
7974
8177
8118
8043
8275
7875
8422
7813
8516
7841
8459
7892
8316
8084
8188
8244
8053
8322
8010
8332
8076
8245
8214
8099
8331
7967
8369
7855
8281
7852
8146
7985
7960
8128
7774
8229
7668
8299
7699
8271
7806
8095
7851
7870
7939
7801
8082
7870
8087
7979
7934
8015
7734
8269
7936
8820
8370
9049
8467
8807
8469
8547
8567
8275
8566
8133
8555
8108
8424
8122
8195
8137
7939
8147
7843
8180
7879
8102
7925
7899
8097
7724
8179
7521
8080
7247
7791
7171
7631
7369
7573
7584
7449
7698
7523
7941
7901
8315
8505
8546
8896
8473
8845
8293
8819
8378
8723
8427
8468
8562
8254
8627
8126
8719
8136
8721
8344
8698
8463
8514
8596
8474
8765
8529
8712
8479
8450
8550
8256
8674
8137
8719
7998
8558
7863
8272
7724
7692
7552
7392
7623
7143
7442
7030
7259
6906
6982
7116
7196
7734
7663
8064
7564
7730
7610
7882
8158
7887
8322
7901
8685
8040
8631
8039
8560
8255
8433
8407
8493
9019
9041
9316
8939
8927
8872
8819
9117
8788
9428
9070
9720
9041
9258
8839
9013
9007
8732
8940
8421
8876
8289
8777
8306
8583
8283
8235
8211
7992
8242
7969
8195
7948
7951
8052
7839
8219
7711
8359
7719
8348
7642
8117
7683
8020
8002
7963
8149
7846
8181
7811
8035
7735
7801
7832
7650
7910
7496
7868
7439
7821
7619
7785
7849
7671
8048
7549
8134
7542
8253
7641
8178
7878
8156
8063
7960
8062
7818
8046
7848
8019
8026
7959
8255
7930
8447
7844
8383
7745
8209
7785
8026
7950
7840
8096
7746
8214
7750
8262
7849
8194
7987
8012
8042
7862
8138
7884
8167
7898
7933
7874
7648
7947
7410
7943
7236
7874
7178
7717
7300
7646
7454
7373
7500
7388
7806
7656
8113
8049
8299
8577
8617
9069
8835
9436
9120
9486
8974
9008
8821
8612
8857
8359
8829
8174
8770
8224
8839
8462
8621
8460
8401
8509
8280
8536
8374
8531
8492
8430
8690
8264
8677
8001
8565
7868
8359
7868
8173
8024
7967
8074
7770
8194
7688
8023
7596
7924
7775
7833
7879
7692
8055
7862
8262
8041
8074
7976
7849
8150
7687
8235
7574
8247
7555
8221
7784
8256
8227
8420
8549
8326
8584
8315
8594
8481
8571
8616
8382
8646
8216
8626
7931
8220
7730
7938
7786
7774
8075
7710
8131
7593
8263
7789
8415
8221
8561
8405
8339
8402
8140
8355
8138
8385
8384
8324
8572
8253
8776
8191
8817
8162
8775
8225
8561
8221
8223
8278
8038
8315
7870
8193
7750
7997
7853
7861
7912
7638
7856
7421
7750
7511
7820
7832
7759
8009
7732
8415
7921
8589
7959
8589
8087
8471
8226
8321
8310
8067
8243
7971
8224
8050
8130
8218
8062
8417
7916
8379
7862
8455
8085
8428
8199
8184
8274
8034
8485
7967
8456
7863
8257
7814
8043
7953
7941
8029
7789
8091
7929
8143
8012
7900
8068
7734
8180
7588
8247
7596
8266
7722
8242
8146
8481
8585
8379
8609
8219
8521
8114
8283
8015
7931
8030
7908
8404
8106
8582
8273
8455
8136
7997
8057
7699
8173
7707
8509
8079
8869
8349
8740
8432
8540
8566
8443
8573
8242
8381
8143
8178
8244
8037
8378
7920
8425
7807
8364
7827
8223
7944
8070
8118
7890
8205
7701
8152
7681
8199
7883
8129
7992
7980
8138
7973
8318
8047
8214
8017
7966
8083
7793
8270
7717
8351
7620
8262
7651
8115
7744
7986
7975
7925
8212
7969
8339
8109
8392
8202
8076
8063
7707
7965
7458
7837
7423
7846
7786
8146
8484
8396
8884
8543
9271
8609
9110
8523
8852
8466
8601
8491
8240
8313
7999
8155
7938
7999
8092
7890
8197
7739
8319
7731
8347
7735
8192
7842
8053
7973
7803
8118
7761
8170
7684
8129
7882
8164
8118
8062
8145
7953
8336
8068
8289
8034
8006
8058
7814
8277
7863
8625
8066
8854
8256
8725
8228
8372
8208
8144
8273
7993
8246
7911
8056
8023
8149
8406
8264
8755
8304
8727
8221
8617
8286
8438
8433
8236
8532
8046
8561
7925
8476
7924
8336
7978
8075
7985
7886
8079
7867
8130
7989
8117
8097
7787
7888
7260
7674
7085
7803
7268
8011
7856
8352
8391
8397
8591
8183
8386
7772
8065
7690
7841
7775
7805
8040
7944
8518
8406
8870
8727
8876
8802
8563
8890
8421
8972
8312
8947
8220
8716
8267
8571
8365
8294
8339
8045
8225
7940
8104
7977
7953
8133
7883
8272
7775
8293
7732
8210
7857
8051
7841
7646
7837
7437
7869
7232
7715
7268
7819
7537
7663
7628
7555
7715
7482
7712
7587
7892
8012
7941
8346
7993
8547
7981
8742
8195
8749
8133
8380
8224
8390
8657
8526
8902
8491
8805
8471
8656
8617
8514
8592
8272
8578
8095
8372
8087
8302
8245
8011
8157
7654
8120
7485
8207
7670
8242
7814
8261
8167
8244
8352
8122
8334
8081
8275
8151
8125
8326
8113
8644
8354
8928
8283
8781
8332
8597
8329
8199
8271
7875
8251
7727
8233
7819
8318
8090
8283
8212
8054
8204
7880
8047
7706
7762
7680
7608
7860
7452
7973
7390
8076
7403
8060
7487
7778
7604
7758
7827
7720
8156
8022
8539
8541
8969
8984
8856
9017
8610
8856
8246
8529
8085
8273
8145
8115
8329
8004
8492
7866
8407
7704
8197
7675
7988
7770
7871
8047
8049
8437
8233
8377
8227
8204
8211
7707
7926
7271
7747
7038
7529
6983
7409
7384
7797
8154
8300
9170
8994
9403
8893
9242
8866
8906
8794
8609
8728
8385
8625
8256
8358
8199
8134
8317
7962
8463
7968
8683
8034
8675
8078
8496
8161
8273
8272
8132
8298
7977
8231
7955
8055
7948
7824
7995
7630
8015
7518
7968
7552
7920
7772
7854
7968
7613
7966
7430
7968
7268
7792
7309
7710
7675
7997
8343
8405
8780
8678
8908
8618
8450
8488
8221
8663
8189
8802
8142
8753
8157
8555
8157
8264
8255
8122
8451
8087
8418
7954
8282
7977
8080
8047
7919
8109
7810
8147
7833
8065
7857
7827
7915
7610
8073
7567
8249
7536
8151
7594
8138
7849
8087
8137
8215
8585
8490
8797
8471
8468
8307
8110
8294
7951
8404
7870
8352
7880
8312
8073
8188
8244
8051
8415
7955
8500
7926
8436
7975
8296
8012
8032
8007
7816
8023
7826
8146
8008
8010
8137
7974
8406
7919
8474
7790
8456
7918
8524
8157
8392
8363
8272
8473
8109
8352
7898
8146
7817
7889
7911
7812
8129
7901
8394
8148
8505
8262
8266
8308
8098
8476
7944
8582
7964
8558
7862
8282
7926
8117
7973
7961
8195
8022
8286
8016
8075
7976
7792
7885
7420
7938
7589
8333
7836
8392
8275
8694
8730
8652
8998
8513
8827
8158
8559
8043
8345
8080
8148
8202
8094
8333
8004
8207
8015
8107
8157
7811
7916
7256
7769
7109
7828
7243
7901
7612
7995
7837
7633
7633
7355
7703
7489
8002
7814
7910
7996
8000
8488
8384
9028
8742
9216
9028
9123
9170
9077
9430
8955
9432
8664
9076
8305
8706
8304
8584
8497
8455
8530
8277
8481
8290
8393
8301
8169
8384
7999
8422
7780
8365
7813
8341
7895
8088
7924
7839
8078
7761
8199
7705
8182
7804
8121
7899
7939
7968
7758
7949
7639
7909
7696
7816
7858
7775
8153
7686
8314
7748
8476
7794
8355
7855
8170
7975
7967
8064
7811
8062
7745
7988
7820
7938
8011
7887
8202
7809
8281
7845
8264
7965
8234
8206
8113
8364
7945
8472
7908
8513
7887
8349
7931
8177
8051
8034
8146
7922
8112
7850
7958
7865
7715
7929
7670
8299
7838
8453
7769
8354
8003
8320
8130
8161
8332
8116
8594
8143
8515
8114
8390
8171
8227
8327
8141
8395
8059
8369
8090
8230
8203
8080
8353
8055
8653
8005
8668
8012
8612
8050
8350
8071
8072
8097
7953
8353
8194
8463
8262
8339
8400
8206
8519
8057
8433
7841
8284
7873
8165
8008
7961
8190
7854
8320
7758
8279
7694
8186
7765
7983
7913
7948
8035
7866
8119
7932
8127
8032
7906
8059
7623
7985
7256
7846
7277
8053
7767
8307
8156
8423
8760
8775
9225
8865
9140
8618
8785
8586
8633
8622
8299
8537
8183
8521
8236
8542
8432
8298
8419
8057
8611
8024
8661
8012
8665
8134
8544
8282
8375
8341
8120
8215
7891
8078
7906
7954
7976
7770
8100
7681
8189
7619
8097
7599
7960
7765
7897
8053
7732
8073
7599
8215
7753
8237
7855
8088
7923
7880
8015
7928
8271
8037
8268
8164
8090
8224
7931
8456
7962
8637
7956
8549
7983
8463
8183
8344
8329
8164
8371
8006
8338
7979
8198
8027
8075
8206
7977
8302
7912
8323
7940
8196
8050
8101
8266
7954
8379
7868
8500
7884
8528
7996
8399
8063
8162
8133
8005
8192
7984
8231
8089
8197
8254
8026
8320
7833
8314
7673
8217
7687
8096
7795
7891
7824
7513
7760
7299
7709
7185
7645
7408
7899
8069
8329
8734
8690
9115
8987
9108
8759
8602
8605
8196
8523
7939
8598
7926
8562
7933
8386
8002
8189
8127
8072
8317
8133
8489
8200
8453
8359
8325
8352
8052
8415
7995
8424
7957
8244
7946
8004
8049
7818
8237
7764
8358
7741
8331
7792
8239
7944
8127
8098
7975
8128
7923
8193
8032
8059
8048
7829
8153
7713
8274
7691
8387
7912
8509
8145
8305
8243
8139
8406
8117
8583
8137
8501
8119
8359
8253
8219
8343
8069
8344
7983
8171
7897
7919
7971
7714
8092
7572
8247
7696
8391
7729
8243
7810
8033
7824
7715
7848
7681
8030
7867
8220
8336
8538
8840
8584
8970
8577
9036
8461
8768
8336
8353
8228
7994
8229
7718
8211
7633
8315
7969
8532
8245
8417
8405
8292
8374
8107
8359
8204
8322
8314
8135
8440
7997
8509
7866
8462
7808
8338
7909
8198
8061
8038
8216
7933
8300
7880
8255
7931
8159
8070
8035
8166
7885
8207
7879
8202
7948
8086
8084
7919
8289
7862
8458
7805
8441
7778
8312
7843
8139
7988
8030
8151
7982
8236
7988
8196
8095
8105
8237
7948
8321
7822
8341
7789
8276
7891
8166
8087
8034
8266
7924
8422
7894
8441
7926
8339
8018
8204
8151
8045
8199
7947
8179
7963
8114
8112
8004
8275
7892
8461
7884
8574
7918
8483
7971
8313
8107
8140
8229
8003
8358
8060
8447
8179
8392
8307
8215
8343
8011
8358
7959
8317
8016
8201
8149
8055
8301
7889
8424
7792
8421
7784
8357
7877
8225
8051
8109
8162
7985
8214
7979
8199
8123
8127
8267
8004
8406
7917
8470
7914
8468
8017
8350
8168
8161
8302
8020
8412
7919
8398
7910
8304
7981
8149
8082
7984
8144
7875
8099
7848
8063
8066
8029
8307
7961
8457
7916
8652
8048
8727
8188
8567
8241
8305
8311
8125
8360
8028
8336
8057
8230
8162
8079
8278
7963
8356
7932
8368
7993
8283
8152
8134
8305
7986
8444
7871
8484
7875
8438
7956
8297
8073
8146
8186
8017
8187
7896
8036
7895
7888
8002
7746
8193
7794
8449
7871
8444
7881
8278
8020
8113
8165
7955
8292
7891
8360
7936
8322
8035
8192
8156
8068
8278
7997
8282
8004
8223
8119
8097
8282
7973
8459
7889
8547
7907
8572
8010
8464
8115
8257
8231
8113
8313
8050
8323
8063
8215
8145
8057
8261
7933
8358
7891
8358
7914
8258
8038
8109
8211
7949
8332
7818
8398
7823
8378
7893
8257
8029
8120
8148
7999
8200
7968
8171
8046
8121
8236
7974
8348
7817
8403
7788
8435
7870
8335
7994
8139
8080
7935
8250
8009
8493
8112
8504
8274
8420
8400
8278
8449
8101
8419
8070
8306
8122
8145
8235
7958
8367
7822
8451
7781
8426
7832
8323
7962
8181
8129
8068
8235
8001
8257
8024
8176
8133
8052
8269
7934
8385
7878
8408
7924
8348
8066
8223
8240
8063
8378
7946
8460
7913
8438
7971
8337
8090
8173
8197
8054
8259
7997
8213
8029
8093
8146
7929
8284
7790
8394
7752
8406
7790
8322
7913
8183
8082
8042
8227
7945
8291
7948
8283
8039
8166
8157
8038
8285
7956
8348
7966
8302
8066
8189
8229
8052
8394
7928
8516
7894
8541
7927
8434
8032
8279
8168
8143
8268
8060
8296
8062
8204
8134
8049
8262
7908
8364
7825
8390
7827
8323
7953
8201
8116
8032
8252
7882
8359
7861
8365
7915
8255
8022
8128
8164
8038
8285
8014
8267
8081
8185
8207
8046
8367
7932
8507
7871
8554
7918
8484
8020
8329
8159
8163
8275
8043
8348
8027
8323
8088
8202
8197
8041
8296
7920
8319
7880
8268
7960
8158
8120
8009
8286
7866
8414
7813
8433
7843
8370
7948
8236
8099
8101
8203
8009
8247
8026
8191
8142
8088
8284
7959
8426
7887
8497
7915
8462
8022
8329
8187
8184
8346
8057
8452
7994
8434
8010
8347
8103
8194
8225
8058
8294
7980
8251
8001
8153
8114
7997
8270
7850
8404
7777
8450
7786
8396
7874
8254
8041
8117
8188
8003
8260
7968
8231
8016
8135
8163
8014
8310
7930
8381
7913
8366
8016
8276
8160
8133
8348
8009
8492
7932
8515
7933
8441
8015
8303
8169
8181
8266
8068
8295
8055
8216
8125
8056
8226
7883
8349
7796
8419
7781
8372
7868
8262
8038
8113
8196
7977
8309
7919
8343
7957
8273
8067
8143
8201
8037
8316
7995
8315
8029
8236
8157
8104
8338
7970
8486
7884
8543
7890
8509
7969
8365
8095
8201
8219
8084
8287
8026
8285
8078
8167
8184
8003
8277
7869
8343
7829
8325
7881
8223
8037
8077
8203
7917
8329
7839
8399
7851
8351
7942
8230
8073
8105
8203
8015
8262
8022
8223
8124
8110
8270
7971
8426
7878
8523
7875
8512
7955
8396
8092
8233
8238
8090
8349
8006
8375
8015
8301
8106
8158
8208
8013
8305
7932
8283
7926
8190
8045
8044
8192
7877
8328
7765
8417
7773
8412
7863
8308
8008
8161
8155
8041
8238
8016
8256
8066
8164
8200
8034
8336
7926
8436
7890
8450
7952
8363
8101
8233
8274
8076
8400
7963
8458
7941
8407
8007
8283
8129
8148
8232
8019
8267
7992
8204
8070
8083
8198
7928
8343
7809
8431
7765
8423
7811
8316
7957
8179
8133
8054
8257
7975
8311
7984
8260
8089
8145
8232
8024
8352
7958
8379
7984
8309
8102
8191
8265
8046
8432
7922
8515
7888
8498
7938
8400
8065
8237
8189
8108
8269
8029
8240
8051
8147
8156
7993
8282
7866
8387
7802
8405
7837
8325
7983
8180
8129
8011
8271
7898
8355
7878
8321
7949
8221
8072
8092
8220
8019
8305
8012
8277
8105
8178
8258
8050
8439
7925
8545
7880
8519
7883
8424
8011
8272
8167
8136
8289
8044
8347
8046
8286
8104
8121
8203
7966
8321
7890
8339
7867
8263
7980
8133
8140
7975
8296
7844
8399
7808
8399
7857
8327
7992
8185
8131
8075
8243
8035
8267
8072
8197
8199
8067
8337
7923
8458
7861
8494
7907
8451
8043
8324
8212
8159
8345
8034
8417
7981
8397
8033
8305
8160
8133
8241
7997
8284
7935
8233
7992
8122
8138
7976
8296
7825
8419
7778
8446
7813
8389
7934
8236
8086
8108
8225
8023
8296
8019
8238
8098
8128
8234
7990
8356
7901
8402
7912
8376
8033
8274
8203
8126
8362
7974
8469
7907
8469
7939
8387
8039
8242
8174
8106
8266
8026
8256
8031
8165
8128
8002
8261
7875
8393
7787
8431
7769
8355
7876
8235
8057
8095
8212
7965
8291
7922
8309
7982
8217
8107
8095
8245
7996
8336
7975
8326
8056
8234
8192
8092
8350
7949
8487
7879
8536
7897
8477
7983
8322
8139
8177
8258
8064
8299
8029
8231
8087
8103
8216
7958
8330
7854
8396
7852
8349
7922
8222
8082
8062
8238
7904
8350
7860
8391
7890
8326
7999
8197
8133
8069
8239
8009
8267
8044
8202
8162
8080
8322
7950
8475
7874
8539
7874
8492
7976
8359
8122
8188
8251
8059
8334
7990
8327
8013
8207
8100
8062
8226
7941
8305
7896
8283
7953
8198
8095
8034
8243
7862
8371
7776
8417
7789
8379
7896
8259
8048
8117
8184
8029
8267
8027
8240
8126
8139
8253
7999
8390
7909
8468
7900
8457
7997
8357
8148
8195
8289
8033
8412
7946
8433
7961
8373
8058
8234
8177
8081
8260
7989
8260
7989
8179
8090
8038
8237
7877
8383
7782
8442
7777
8416
7852
8293
8015
8150
8169
8013
8259
7959
8285
8017
8212
8135
8075
8286
7974
8373
7937
8381
7995
8314
8157
8179
8340
8037
8484
7921
8526
7906
8477
7983
8343
8107
8190
8217
8048
8258
8005
8208
8069
8089
8190
7928
8324
7820
8407
7786
8389
7853
8285
8001
8120
8165
7989
8307
7923
8379
7941
8336
8041
8213
8161
8060
8274
7992
8307
8014
8259
8141
8166
8341
8040
8486
7901
8535
7868
8517
7935
8406
8063
8240
8211
8107
8304
8030
8307
8042
8201
8138
8046
8243
7913
8339
7858
8351
7900
8262
8029
8112
8182
7949
8333
7836
8411
7830
8392
7907
8276
8037
8142
8179
8043
8273
8029
8250
8107
8137
8226
7999
8386
7888
8488
7863
8510
7921
8408
8073
8264
8227
8109
8354
8008
8417
7999
8355
8065
8215
8187
8071
8287
7959
8274
7932
8218
8045
8105
8210
7942
8347
7809
8444
7795
8453
7855
8344
7982
8200
8139
8073
8245
8014
8286
8048
8215
8165
8083
8297
7967
8425
7919
8465
7963
8385
8094
8240
8256
8082
8393
7953
8472
7906
8435
7963
8324
8076
8174
8197
8046
8272
8003
8235
8067
8125
8186
7976
8339
7853
8443
7789
8443
7812
8347
7949
8208
8116
8066
8250
7954
8322
7950
8286
8039
8187
8185
8057
8313
7974
8362
7977
8312
8087
8201
8249
8065
8416
7935
8526
7887
8533
7930
8442
8053
8299
8185
8149
8281
8048
8283
8036
8177
8109
8009
8222
7876
8350
7820
8397
7836
8324
7947
8176
8110
8020
8269
7903
8372
7860
8370
7923
8283
8045
8153
8188
8038
8281
8011
8269
8073
8181
8210
8046
8366
7908
8501
7856
8526
7882
8456
7999
8305
8138
8139
8263
8018
8331
7989
8285
8034
8155
8153
8000
8264
7893
8305
7869
8266
7957
8148
8110
7993
8274
7843
8395
7792
8426
7829
8361
7940
8213
8090
8089
8217
8012
8261
8030
8198
8142
8081
8288
7950
8430
7881
8490
7901
8458
8022
8335
8175
8159
8318
8014
8411
7956
8414
7987
8335
8101
8183
8213
8030
8286
7977
8265
8020
8185
8166
8052
8320
7902
8448
7818
8494
7827
8442
7930
8300
8084
8150
8223
8023
8289
7995
8284
8079
8190
8199
8044
8334
7940
8393
7910
8373
8017
8288
8168
8116
8326
7968
8453
7877
8472
7893
8409
7991
8278
8134
8137
8224
8015
8251
8008
8178
8087
8044
8219
7890
8353
7793
8411
7765
8379
7849
8253
8031
8100
8195
7963
8307
7909
8342
7956
8282
8070
8154
8204
8022
8309
7986
8340
8042
8255
8176
8127
8332
7969
8477
7875
8542
7868
8495
7949
8356
8100
8205
8224
8073
8286
8015
8270
8042
8144
8149
7987
8276
7879
8366
7837
8340
7887
8242
8039
8087
8217
7928
8352
7856
8415
7862
8369
7952
8250
8110
8140
8244
8052
8304
8049
8252
8145
8134
8298
7998
8450
7887
8513
7838
8481
7917
8368
8056
8190
8200
8047
8311
7952
8340
7963
8245
8045
8102
8169
7961
8253
7882
8256
7905
8183
8026
8041
8181
7861
8311
7744
8387
7741
8390
7837
8283
7982
8142
8134
8025
8234
7991
8249
8047
8158
8176
8022
8336
7922
8447
7890
8454
7947
8365
8096
8224
8258
8057
8389
7942
8442
7923
8402
7989
8274
8121
8120
8213
7999
8261
7974
8201
8057
8088
8199
7935
8351
7815
8444
7774
8442
7834
8348
7990
8201
8147
8059
8276
7980
8322
7989
8271
8087
8147
8232
8024
8359
7957
8398
7992
8344
8118
8224
8291
8076
8452
7933
8526
7888
8505
7937
8402
8065
8242
8199
8105
8264
8019
8260
8045
8158
8159
8007
8291
7877
8403
7820
8426
7843
8332
7982
8195
8150
8039
8305
7925
8379
7905
8358
7968
8250
8120
8137
8249
8031
8321
8018
8295
8112
8203
8270
8063
8449
7942
8552
7890
8561
7918
8464
8033
8294
8176
8141
8297
8040
8331
8014
8247
8073
8119
8198
7965
8310
7879
8359
7882
8287
7995
8152
8143
7996
8303
7856
8417
7814
8418
7872
8349
7991
8202
8143
8081
8257
8034
8292
8077
8200
8195
8076
8358
7954
8483
7883
8530
7921
8470
8028
8305
8188
8144
8326
8024
8410
7972
8387
8012
8258
8114
8092
8218
7968
8285
7929
8243
7985
8126
8133
7981
8296
7835
8428
7782
8470
7830
8413
7948
8257
8097
8110
8219
8009
8280
8001
8241
8092
8136
8232
7999
8378
7928
8455
7939
8427
8051
8298
8208
8134
8357
7972
8458
7891
8470
7925
8377
8024
8220
8147
8069
8238
7997
8242
8003
8155
8115
8023
8279
7887
8409
7798
8439
7778
8376
7880
8257
8068
8108
8225
7978
8315
7940
8327
7992
8241
8129
8109
8257
8001
8350
7971
8342
8046
8251
8196
8108
8367
7965
8518
7890
8548
7892
8480
7974
8327
8116
8160
8227
8029
8269
8000
8208
8049
8075
8180
7936
8319
7839
8380
7820
8344
7905
8231
8066
8076
8232
7913
8354
7856
8391
7879
8331
7989
8204
8139
8072
8258
8010
8287
8030
8218
8154
8105
8322
7961
8479
7881
8550
7882
8513
7955
8370
8102
8198
8243
8054
8334
7994
8340
8012
8219
8093
8062
8216
7926
8297
7885
8290
7939
8207
8083
8059
8243
7883
8379
7789
8440
7799
8389
7890
8266
8049
8137
8200
8041
8277
8030
8255
8116
8155
8247
8015
8406
7919
8494
7908
8495
7986
8388
8140
8225
8291
8048
8407
7948
8435
7952
8363
8023
8212
8136
8047
8227
7960
8247
7963
8189
8082
8064
8233
7900
8360
7772
8438
7758
8423
7837
8306
8005
8164
8160
8038
8277
7982
8309
8020
8226
8135
8089
8275
7977
8389
7935
8409
7990
8335
8138
8189
8303
8029
8449
7906
8499
7874
8458
7948
8334
8083
8174
8194
8045
8256
7989
8204
8039
8084
8169
7949
8318
7837
8420
7797
8423
7838
8310
7992
8154
8154
8014
8294
7912
8358
7913
8321
8005
8203
8156
8078
8285
8006
8340
8018
8299
8140
8186
8304
8041
8469
7922
8553
7864
8531
7913
8414
8049
8255
8189
8111
8280
8005
8281
8004
8181
8084
8032
8225
7910
8338
7843
8359
7885
8287
8011
8138
8174
7975
8330
7857
8417
7835
8406
7905
8293
8030
8160
8183
8054
8287
8035
8282
8118
8188
8264
8074
8419
7925
8507
7868
8527
7907
8420
8029
8264
8183
8102
8314
7984
8371
7965
8323
8026
8185
8139
8028
8234
7922
8285
7917
8239
8027
8123
8181
7963
8333
7821
8445
7789
8460
7848
8371
7964
8223
8122
8091
8250
8020
8296
8049
8225
8156
8111
8301
7986
8435
7918
8472
7948
8411
8079
8288
8240
8112
8375
7962
8463
7916
8452
7968
8348
8070
8183
8184
8031
8250
7968
8219
8012
8129
8147
7978
8301
7843
8424
7771
8446
7792
8360
7908
8235
8091
8079
8234
7966
8317
7955
8305
8039
8203
8172
8064
8309
7973
8382
7978
8354
8080
8253
8242
8099
8397
7940
8513
7874
8515
7892
8431
7991
8272
8135
8118
8225
8006
8252
8001
8170
8092
8032
8215
7893
8352
7808
8402
7807
8347
7912
8216
8093
8068
8260
7926
8377
7883
8385
7937
8318
8063
8187
8199
8056
8286
7997
8289
8059
8214
8210
8101
8378
7963
8515
7874
8550
7871
8479
7959
8322
8123
8170
8259
8043
8328
7988
8284
8025
8157
8138
8007
8255
7904
8339
7888
8316
7964
8209
8107
8040
8268
7877
8398
7804
8437
7831
8381
7941
8250
8101
8120
8220
8031
8285
8044
8237
8162
8141
8315
8004
8460
7912
8536
7918
8492
8000
8347
8134
8171
8284
8027
8400
7949
8404
7965
8308
8047
8149
8162
7997
8253
7933
8253
7962
8162
8090
8027
8248
7861
8396
7767
8454
7782
8411
7865
8285
8031
8135
8176
8019
8283
7994
8283
8055
8190
8190
8055
8344
7963
8447
7948
8453
8035
8341
8164
8179
8329
8012
8450
7899
8486
7893
8427
7975
8282
8103
8118
8198
8003
8246
7977
8181
8066
8057
8203
7908
8346
7802
8429
7778
8408
7852
8299
8022
8142
8183
8006
8303
7931
8349
7961
8298
8066
8173
8212
8039
8324
7991
8362
8035
8303
8164
8167
8323
8018
8485
7894
8543
7862
8506
7930
8377
8070
8215
8195
8054
8261
7989
8250
8019
8133
8128
7984
8263
7866
8364
7825
8365
7860
8269
8008
8115
8185
7951
8332
7865
8412
7864
8380
7951
8270
8103
8135
8224
8037
8295
8025
8259
8127
8161
8281
8032
8453
7912
8539
7868
8527
7916
8403
8051
8246
8207
8097
8318
7990
8344
7979
8274
8049
8134
8168
7978
8275
7902
8301
7911
8238
8027
8107
8190
7926
8349
7813
8445
7795
8436
7857
8330
7995
8191
8157
8080
8262
8023
8290
8065
8198
8197
8075
8365
7958
8468
7908
8496
7944
8410
8068
8248
8228
8074
8364
7954
8442
7931
8412
7979
8280
8104
8123
8201
7995
8265
7960
8220
8033
8096
8163
7934
8317
7805
8429
7761
8446
7809
8360
7947
8222
8126
8082
8260
7984
8319
7985
8281
8086
8168
8225
8036
8367
7965
8422
7981
8380
8103
8251
8267
8086
8410
7936
8500
7865
8503
7919
8397
8022
8230
8150
8075
8236
7990
8223
8004
8137
8121
7998
8263
7868
8386
7789
8417
7808
8344
7926
8205
8112
8049
8262
7927
8364
7895
8360
7962
8255
8094
8138
8238
8028
8322
8011
8322
8105
8224
8256
8087
8408
7935
8528
7859
8536
7875
8453
7980
8287
8130
8134
8245
8008
8292
7980
8229
8041
8106
8169
7957
8306
7880
8366
7859
8304
7950
8179
8117
8024
8285
7877
8407
7823
8434
7866
8357
7982
8222
8145
8108
8259
8030
8293
8054
8217
8187
8103
8347
7974
8495
7897
8537
7902
8485
8006
8337
8149
8163
8287
8021
8377
7944
8355
7970
8236
8069
8074
8182
7954
8273
7916
8263
7976
8167
8120
8012
8273
7847
8411
7786
8457
7797
8404
7903
8272
8068
8130
8210
8035
8298
8022
8270
8096
8167
8244
8033
8394
7945
8471
7938
8455
8030
8333
8174
8163
8327
8001
8438
7911
8458
7912
8380
7995
8218
8120
8056
8196
7958
8221
7972
8158
8082
8032
8232
7881
8380
7782
8440
7774
8416
7863
8291
8034
8133
8192
7988
8294
7933
8317
7983
8245
8104
8126
8253
8019
8381
8001
8418
8080
8341
8214
8184
8366
8009
8486
7888
8531
7884
8487
7949
8346
8081
8165
8189
8028
8244
7982
8210
8037
8105
8176
7963
8319
7844
8390
7807
8378
7870
8271
8037
8122
8206
7967
8335
7879
8392
7893
8349
7991
8236
8141
8097
8249
8019
8311
8032
8270
8157
8156
8327
8018
8477
7905
8549
7861
8514
7920
8386
8060
8223
8204
8070
8294
7971
8303
7977
8201
8053
8053
8196
7939
8306
7875
8320
7911
8232
8044
8095
8206
7932
8367
7822
8446
7817
8423
7887
8296
8021
8155
8172
8047
8265
8016
8251
8085
8179
8242
8066
8410
7950
8518
7911
8519
7955
8413
8081
8242
8232
8080
8360
7959
8410
7927
8351
7993
8206
8091
8037
8189
7932
8246
7937
8219
8056
8101
8196
7932
8347
7807
8448
7765
8449
7823
8353
7975
8218
8158
8098
8286
8017
8317
8030
8256
8141
8136
8287
8013
8422
7955
8462
7991
8391
8111
8246
8260
8068
8403
7931
8490
7885
8468
7932
8352
8032
8180
8163
8032
8225
7969
8199
8017
8121
8150
7971
8290
7845
8410
7779
8416
7799
8335
7920
8196
8113
8053
8265
7939
8354
7924
8332
8009
8237
8151
8096
8285
8006
8356
8008
8335
8111
8232
8269
8086
8422
7926
8524
7856
8526
7888
8436
7987
8274
8134
8104
8231
7999
8262
7983
8186
8062
8054
8209
7925
8339
7846
8379
7839
8324
7957
8188
8122
8031
8276
7876
8392
7843
8405
7893
8333
8024
8201
8187
8083
8285
8027
8302
8090
8226
8224
8100
8380
7962
8520
7881
8549
7890
8475
7991
8320
8144
8161
8282
8015
8358
7958
8310
7993
8187
8091
8033
8214
7920
8294
7895
8271
7966
8165
8117
8009
8288
7864
8424
7799
8461
7826
8402
7931
8262
8096
8134
8232
8041
8293
8040
8252
8140
8149
8290
8013
8431
7934
8506
7928
8472
8021
8331
8165
8153
8314
8001
8423
7916
8426
7927
8324
8005
8170
8129
8013
8205
7936
8222
7976
8168
8113
8033
8258
7866
8402
7782
8453
7787
8416
7876
8287
8049
8134
8196
8014
8302
7976
8316
8029
8220
8160
8088
8307
7992
8407
7967
8415
8047
8317
8187
8152
8341
7988
8461
7877
8506
7877
8452
7952
8287
8073
8118
8177
7997
8218
7972
8181
8050
8071
8201
7929
8339
7824
8415
7797
8397
7871
8285
8047
8126
8211
7981
8331
7900
8381
7925
8321
8029
8205
8179
8063
8284
8001
8335
8047
8279
8178
8157
8344
8009
8490
7886
8551
7863
8517
7937
8380
8074
8215
8198
8063
8268
7962
8257
7985
8152
8090
8017
8235
7913
8352
7870
8357
7913
8255
8048
8101
8216
7929
8351
7826
8440
7839
8409
7931
8297
8082
8164
8217
8056
8299
8038
8266
8127
8174
8283
8034
8439
7933
8539
7889
8517
7934
8396
8067
8226
8221
8067
8341
7951
8370
7932
8295
8007
8145
8126
8002
8228
7925
8274
7937
8223
8059
8084
8209
7916
8367
7803
8452
7786
8444
7853
8341
8006
8202
8160
8083
8271
8016
8299
8044
8213
8168
8100
8340
7981
8453
7941
8490
7985
8390
8108
8230
8256
8055
8390
7924
8470
7900
8428
7943
8289
8050
8133
8164
7997
8233
7963
8194
8019
8093
8168
7949
8329
7831
8436
7776
8448
7821
8351
7975
8208
8137
8055
8274
7958
8349
7969
8314
8054
8197
8197
8065
8334
7996
8395
8014
8361
8128
8235
8281
8065
8422
7911
8512
7857
8515
7902
8410
8004
8240
8143
8075
8225
7982
8237
7993
8157
8112
8027
8253
7891
8365
7821
8400
7840
8328
7961
8191
8139
8027
8286
7902
8391
7877
8397
7942
8306
8059
8148
8191
8038
8290
8020
8300
8111
8219
8261
8089
8425
7936
8526
7863
8536
7881
8456
7997
8289
8148
8123
8258
7985
8306
7948
8255
8008
8128
8133
7981
8264
7892
8330
7887
8279
7988
8158
8135
7998
8294
7854
8422
7804
8453
7846
8374
7969
8243
8129
8113
8254
8038
8297
8057
8234
8178
8125
8332
7994
8480
7924
8536
7926
8468
8020
8311
8164
8144
8314
7989
8405
7917
8378
7934
8264
8032
8119
8164
7986
8251
7939
8239
7988
8150
8123
8007
8285
7846
8420
7778
8469
7797
8410
7907
8275
8071
8128
8228
8015
8310
8010
8296
8077
8196
8218
8070
8368
7973
8452
7977
8432
8056
8307
8198
8126
8358
7959
8466
7876
8488
7895
8398
7969
8229
8093
8062
8184
7973
8214
7982
8166
8095
8030
8233
7893
8367
7792
8426
7796
8402
7893
8269
8074
8119
8234
7973
8342
7928
8368
7975
8293
8089
8163
8216
8039
8334
8007
8350
8075
8268
8206
8139
8362
7967
8499
7872
8539
7861
8483
7948
8336
8084
8157
8192
8011
8250
7967
8226
8024
8124
8157
7983
8299
7871
8362
7846
8345
7911
8233
8075
8085
8243
7918
8382
7850
8427
7868
8381
7973
8253
8124
8128
8252
8044
8312
8065
8268
8177
8151
8336
8015
8488
7906
8543
7874
8494
7942
8370
8092
8198
8236
8035
8318
7939
8327
7948
8233
8038
8089
8175
7959
8274
7905
8283
7942
8208
8079
8067
8248
7897
8400
7796
8456
7793
8422
7880
8307
8040
8158
8167
8034
8260
8006
8272
8080
8188
8238
8070
8391
7965
8486
7930
8482
7984
8369
8120
8205
8278
8041
8407
7928
8446
7898
8370
7961
8220
8076
8066
8192
7973
8237
7975
8196
8065
8065
8211
7908
8365
7804
8448
7781
8447
7852
8340
8005
8184
8170
8052
8293
7981
8348
8009
8285
8112
8154
8253
8037
8386
7989
8424
8026
8357
8154
8200
8304
8030
8444
7896
8508
7857
8475
7916
8343
8018
8173
8153
8027
8216
7970
8210
8019
8121
8157
7981
8290
7858
8401
7802
8401
7847
8314
7998
8168
8163
8011
8314
7907
8388
7902
8371
7983
8252
8132
8130
8254
8039
8344
8037
8303
8148
8202
8301
8053
8448
7903
8532
7841
8522
7893
8400
8017
8240
8150
8074
8251
7960
8280
7965
8204
8045
8080
8189
7950
8315
7876
8337
7885
8269
8011
8135
8170
7969
8329
7847
8438
7822
8436
7895
8349
8030
8210
8179
8080
8278
8037
8290
8093
8224
8236
8091
8402
7963
8509
7900
8528
7920
8436
8040
8280
8196
8102
8325
7958
8380
7910
8330
7959
8196
8064
8046
8196
7944
8264
7927
8228
8017
8125
8171
7972
8326
7829
8450
7779
8460
7824
8389
7952
8240
8128
8111
8256
8011
8308
8017
8259
8137
8161
8288
8034
8429
7966
8476
7975
8408
8076
8268
8218
8090
8371
7944
8477
7881
8452
7898
8340
7990
8165
8113
8025
8207
7963
8214
8001
8135
8128
7983
8276
7856
8406
7793
8448
7805
8378
7915
8240
8097
8085
8239
7958
8341
7936
8347
8009
8251
8159
8131
8304
8038
8384
8015
8375
8101
8264
8249
8098
8395
7938
8508
7852
8524
7868
8442
7966
8281
8103
8112
8213
7990
8237
7973
8186
8054
8060
8193
7924
8313
7830
8377
7845
8350
7936
8231
8117
8073
8274
7921
8385
7859
8422
7905
8353
8030
8221
8181
8091
8294
8046
8322
8094
8256
8231
8137
8385
7984
8509
7875
8541
7868
8474
7961
8327
8111
8148
8236
7999
8308
7936
8291
7970
8179
8082
8032
8210
7924
8306
7895
8281
7957
8192
8113
8038
8276
7881
8415
7804
8463
7826
8411
7932
8282
8093
8146
8225
8046
8291
8039
8260
8144
8165
8290
8035
8442
7939
8513
7920
8472
7991
8328
8126
8159
8287
8008
8382
7900
8402
7906
8311
7980
8157
8108
8015
8215
7944
8240
7978
8178
8099
8042
8251
7890
8397
7792
8462
7789
8432
7870
8314
8044
8160
8196
8035
8303
7988
8317
8035
8233
8167
8119
8331
8014
8434
7986
8442
8047
8332
8164
8164
8318
7994
8452
7873
8492
7866
8437
7938
8290
8058
8126
8163
7997
8222
7973
8196
8053
8087
8190
7930
8327
7813
8408
7793
8408
7858
8296
8032
8148
8199
8001
8329
7923
8387
7933
8338
8031
8206
8171
8084
8313
8033
8365
8080
8311
8185
8179
8339
8026
8481
7891
8539
7855
8508
7920
8378
8044
8196
8175
8030
8255
7961
8255
7986
8166
8108
8028
8242
7914
8343
7854
8352
7895
8266
8041
8118
8211
7957
8358
7845
8444
7845
8419
7934
8305
8082
8168
8210
8060
8301
8058
8287
8136
8196
8281
8055
8440
7927
8518
7870
8503
7911
8389
8048
8227
8198
8061
8302
7935
8344
7916
8273
7991
8144
8121
8009
8246
7930
8282
7934
8226
8042
8099
8199
7929
8355
7812
8452
7785
8452
7858
8355
8000
8221
8160
8089
8271
8017
8305
8061
8243
8193
8123
8352
7999
8459
7940
8471
7962
8378
8071
8222
8236
8057
8380
7918
8445
7869
8400
7916
8269
8024
8108
8144
7985
8224
7957
8202
8024
8108
8175
7959
8320
7832
8442
7785
8454
7822
8366
7972
8220
8135
8065
8282
7975
8353
7970
8321
8066
8214
8211
8097
8355
8011
8411
8017
8359
8121
8226
8263
8053
8415
7914
8507
7851
8511
7895
8401
7998
8225
8128
8062
8206
7971
8226
7993
8159
8115
8032
8255
7901
8373
7830
8409
7839
8331
7979
8196
8137
8033
8297
7917
8402
7882
8398
7951
8315
8076
8179
8223
8073
8326
8051
8333
8126
8233
8268
8093
8419
7929
8510
7850
8530
7883
8451
7990
8280
8125
8097
8239
7958
8272
7926
8246
8004
8134
8144
7995
8278
7905
8325
7891
8282
7991
8166
8147
8011
8303
7850
8425
7803
8450
7853
8379
7977
8247
8143
8118
8249
8035
8301
8066
8244
8197
8132
8360
8007
8493
7915
8514
7905
8440
8005
8292
8151
8111
8283
7948
8373
7887
8362
7930
8255
8032
8113
8168
7995
8264
7950
8250
8000
8158
8148
8007
8294
7848
8430
7785
8472
7810
8418
7929
8283
8100
8133
8240
8022
8311
8005
8297
8082
8207
8241
8076
8391
7998
8460
7986
8430
8056
8288
8192
8120
8348
7952
8467
7865
8471
7868
8366
7942
8212
8083
8060
8188
7984
8234
7990
8169
8100
8043
8245
7898
8376
7807
8437
7800
8403
7899
8273
8078
8117
8249
7985
8351
7927
8369
7974
8299
8093
8170
8244
8067
8359
8039
8375
8089
8289
8218
8123
8359
7955
8491
7859
8526
7851
8465
7933
8305
8056
8126
8181
7990
8242
7957
8218
8027
8117
8157
7975
8290
7870
8369
7844
8341
7917
8240
8080
8084
8249
7924
8383
7847
8431
7880
8380
7980
8258
8128
8130
8260
8053
8331
8081
8278
8193
8160
8348
8003
8470
7886
8514
7850
8464
7911
8322
8066
8163
8216
8014
8313
7918
8313
7934
8218
8034
8082
8173
7966
8274
7907
8286
7948
8202
8081
8059
8259
7907
8410
7824
8472
7807
8437
7898
8316
8064
8180
8208
8065
8306
8044
8306
8130
8217
8265
8098
8415
7980
8494
7928
8471
7978
8349
8117
8180
8269
8019
8394
7897
8416
7873
8353
7947
8211
8071
8061
8196
7973
8242
7975
8195
8073
8069
8223
7913
8371
7810
8455
7783
8437
7846
8334
8019
8185
8185
8047
8299
7971
8342
7997
8277
8106
8160
8260
8036
8386
8003
8424
8044
8334
8148
8183
8294
8012
8446
7880
8509
7848
8457
7902
8318
8010
8152
8144
8005
8207
7961
8207
8026
8124
8156
7979
8294
7854
8401
7821
8413
7875
8318
8027
8161
8185
8005
8327
7907
8408
7912
8374
7993
8258
8148
8140
8297
8064
8361
8075
8322
8171
8196
8297
8031
8447
7896
8526
7847
8516
7900
8396
8018
8216
8149
8054
8246
7947
8270
7949
8196
8050
8065
8189
7944
8306
7878
8344
7899
8275
8026
8135
8189
7980
8348
7853
8447
7832
8442
7899
8334
8031
8199
8182
8081
8291
8053
8317
8128
8229
8250
8098
8416
7960
8500
7887
8505
7913
8408
8038
8244
8178
8066
8303
7920
8350
7883
8307
7946
8188
8068
8043
8194
7945
8267
7937
8231
8038
8122
8183
7963
8348
7839
8457
7782
8465
7835
8375
7964
8243
8142
8111
8268
8021
8326
8041
8281
8157
8157
8310
8048
8438
7982
8479
7980
8396
8081
8251
8230
8078
8374
7924
8447
7841
8409
7874
8301
7980
8151
8123
8017
8208
7962
8214
8004
8126
8132
7983
8285
7854
8409
7793
8448
7816
8376
7935
8232
8118
8086
8279
7975
8371
7953
8355
8026
8264
8171
8142
8317
8048
8394
8039
8379
8116
8246
8246
8077
8391
7926
8499
7843
8508
7855
8414
7948
8245
8080
8082
8204
7977
8259
7984
8199
8066
8068
8210
7932
8341
7848
8380
7834
8321
7935
8194
8109
8042
8287
7919
8413
7869
8430
7920
8351
8039
8221
8195
8105
8313
8057
8332
8117
8259
8246
8127
8398
7969
8498
7864
8529
7868
8457
7964
8303
8102
8122
8229
7969
8291
7918
8283
7967
8175
8088
8035
8220
7925
8300
7892
8275
7964
8176
8121
8026
8293
7873
8426
7807
8472
7833
8415
7947
8279
8111
8140
8235
8046
8307
8064
8275
8169
8182
8316
8042
8450
7932
8496
7905
8443
7991
8310
8136
8141
8293
7973
8392
7886
8386
7889
8299
7983
8151
8121
8021
8219
7951
8243
7984
8173
8119
8036
8269
7889
8409
7794
8471
7803
8437
7903
8303
8069
8154
8219
8038
8306
7988
8315
8039
8247
8190
8130
8352
8025
8437
7998
8429
8048
8298
8170
8135
8324
7962
8452
7858
8477
7837
8405
7903
8241
8028
8091
8165
7986
8217
7981
8195
8066
8082
8206
7928
8343
7828
8418
7803
8399
7878
8288
8049
8139
8228
8000
8355
7922
8402
7947
8343
8050
8220
8206
8102
8327
8046
8373
8084
8306
8188
8157
8335
7985
8469
7870
8531
7849
8489
7909
8344
8025
8149
8149
7993
8235
7938
8250
7990
8166
8116
8024
8239
7908
8343
7864
8346
7923
8267
8071
8119
8236
7956
8383
7857
8457
7859
8431
7953
8308
8088
8152
8218
8063
8309
8060
8289
8159
8191
8303
8035
8440
7912
8509
7870
8498
7920
8371
8058
8197
8195
8019
8297
7900
8327
7901
8265
7984
8142
8136
8006
8255
7936
8277
7945
8215
8061
8089
8225
7920
8377
7815
8469
7793
8459
7878
8357
8029
8214
8183
8086
8282
8028
8315
8083
8243
8209
8134
8371
8007
8462
7942
8469
7972
8371
8103
8213
8246
8031
8371
7890
8431
7848
8387
7904
8250
8022
8106
8158
7992
8228
7964
8206
8045
8102
8186
7953
8331
7827
8446
7793
8453
7842
8356
7994
8210
8164
8071
8299
7972
8360
7974
8324
8082
8227
8233
8102
8373
8025
8421
8029
8355
8131
8211
8273
8037
8416
7890
8503
7832
8478
7864
8344
7967
8185
8106
8031
8203
7967
8235
7994
8148
8113
8022
8248
7880
8366
7829
8412
7871
8342
8004
8197
8169
8039
8324
7922
8419
7894
8411
7951
8296
8081
8176
8241
8078
8338
8074
8339
8149
8235
8285
8078
8424
7915
8511
7846
8511
7873
8427
7981
8243
8113
8073
8233
7949
8267
7922
8225
8002
8116
8143
7983
8267
7900
8326
7896
8283
8006
8164
8172
8002
8329
7860
8450
7822
8465
7866
8384
7991
8243
8152
8114
8267
8054
8320
8096
8263
8228
8147
8377
7998
8488
7913
8503
7918
8446
8021
8284
8157
8085
8276
7918
8340
7862
8334
7899
8232
8028
8095
8154
7978
8241
7940
8235
8003
8156
8155
8001
8305
7849
8430
7782
8460
7812
8416
7947
8285
8114
8139
8247
8020
8327
8018
8323
8112
8219
8263
8082
8394
7990
8449
7966
8403
8055
8266
8199
8101
8351
7937
8450
7844
8445
7855
8350
7942
8202
8079
8052
8196
7982
8239
7993
8160
8104
8031
8255
7893
8392
7816
8444
7810
8409
7919
8272
8097
8118
8270
7991
8378
7938
8380
7984
8312
8126
8195
8266
8073
8369
8040
8377
8096
8269
8207
8105
8359
7943
8489
7853
8524
7844
8444
7917
8281
8052
8107
8169
7979
8232
7956
8220
8024
8116
8159
7974
8292
7868
8364
7842
8331
7934
8233
8091
8078
8261
7924
8404
7858
8441
7886
8389
7986
8259
8146
8151
8286
8073
8345
8101
8289
8219
8172
8354
8008
8475
7887
8518
7856
8473
7934
8329
8069
8148
8207
7979
8283
7897
8296
7928
8217
8039
8085
8179
7957
8283
7917
8281
7957
8206
8103
8065
8260
7902
8407
7801
8468
7812
8441
7910
8318
8075
8181
8222
8085
8316
8054
8319
8145
8238
8278
8111
8420
7967
8477
7910
8447
7958
8330
8099
8154
8245
7983
8348
7856
8388
7844
8327
7932
8197
8064
8052
8189
7969
8239
7979
8197
8083
8073
8232
7923
8389
7815
8468
7798
8452
7872
8343
8041
8197
8203
8058
8316
7979
8351
8015
8294
8140
8172
8307
8069
8420
8017
8427
8047
8329
8152
8179
8318
8010
8446
7873
8484
7821
8429
7874
8281
7985
8121
8122
7997
8207
7966
8211
8027
8119
8171
7980
8320
7865
8407
7825
8412
7875
8314
8026
8160
8205
8019
8346
7919
8415
7920
8384
8006
8274
8171
8161
8308
8079
8374
8079
8324
8175
8187
8295
8022
8441
7881
8522
7834
8500
7875
8358
7997
8183
8124
8028
8234
7932
8268
7948
8196
8054
8067
8199
7942
8315
7883
8340
7917
8270
8047
8129
8208
7977
8360
7847
8456
7832
8446
7902
8334
8054
8205
8197
8089
8309
8058
8322
8142
8232
8272
8089
8398
7939
8492
7876
8502
7922
8395
8034
8222
8178
8038
8286
7899
8340
7871
8298
7937
8177
8070
8052
8214
7958
8280
7963
8244
8053
8117
8196
7956
8355
7829
8461
7790
8476
7851
8383
7998
8243
8151
8098
8277
8020
8334
8059
8287
8173
8186
8328
8050
8443
7972
8460
7972
8376
8085
8226
8227
8052
8362
7899
8444
7833
8407
7859
8281
7972
8137
8119
8010
8205
7963
8212
8016
8127
8154
7981
8302
7870
8429
7801
8449
7836
8374
7979
8236
8142
8084
8298
7967
8374
7962
8366
8040
8266
8191
8152
8335
8057
8399
8036
8355
8113
8226
8250
8057
8390
7903
8499
7824
8479
7834
8378
7938
8215
8089
8070
8207
7976
8252
7977
8189
8063
8050
8200
7912
8325
7837
8381
7865
8327
7975
8207
8146
8048
8311
7916
8424
7878
8438
7922
8354
8051
8225
8212
8106
8323
8077
8352
8144
8262
8247
8106
8376
7942
8493
7862
8523
7866
8440
7939
8262
8095
8086
8220
7940
8282
7904
8276
7969
8174
8094
8034
8226
7936
8310
7915
8297
8007
8184
8149
8024
8311
7874
8449
7821
8481
7847
8413
7964
8280
8120
8143
8251
8061
8328
8074
8284
8184
8181
8320
8033
8442
7929
8487
7912
8434
8004
8295
8145
8112
8280
7934
8357
7852
8363
7877
8268
7982
8154
8131
8023
8227
7973
8245
7999
8166
8127
8031
8281
7879
8418
7794
8475
7811
8427
7915
8306
8088
8160
8239
8043
8343
8004
8348
8072
8256
8210
8134
8355
8035
8432
7984
8408
8046
8282
8170
8106
8328
7941
8441
7833
8458
7822
8376
7902
8231
8042
8090
8169
7991
8236
7989
8197
8068
8072
8214
7925
8354
7833
8426
7818
8398
7894
8271
8066
8129
8234
7989
8360
7914
8402
7947
8343
8064
8230
8224
8118
8350
8061
8368
8082
8270
8179
8127
8333
7974
8468
7855
8525
7824
8457
7893
8303
8022
8129
8154
7989
8246
7947
8257
7999
8169
8121
8020
8249
7909
8339
7857
8327
7917
8236
8081
8091
8241
7920
8375
7852
8466
7873
8432
7969
8319
8138
8198
8273
8101
8341
8095
8317
8178
8189
8316
8031
8445
7903
8508
7869
8477
7920
8341
8044
8156
8187
7993
8279
7879
8317
7896
8269
7998
8135
8130
7997
8240
7920
8263
7945
8201
8069
8067
8233
7915
8401
7832
8497
7826
8485
7914
8384
8074
8240
8221
8102
8326
8058
8354
8117
8275
8247
8144
8378
8004
8453
7936
8441
7956
8334
8090
8174
8227
7984
8339
7829
8388
7813
8333
7867
8195
7991
8055
8127
7956
8184
7946
8180
8044
8098
8203
7948
8372
7848
8458
7808
8465
7876
8363
8022
8201
8162
8028
8256
7910
8331
7951
8303
8046
8148
8153
7992
8271
7940
8326
7982
8319
8145
8218
8320
8057
8460
7924
8595
7979
8623
7993
8445
8082
8249
8158
8037
8187
7916
8155
7921
8050
8011
7917
8127
7619
8000
7419
7922
7350
7810
7582
7854
7954
7860
8280
7952
8593
8223
8880
8453
8812
8694
8817
8891
8663
8828
8461
8605
8351
8353
8379
8143
8525
8010
8594
7906
8548
7892
8386
7965
8147
8002
7882
8060
7753
8120
7763
8027
7821
7931
7966
7803
8089
7758
8200
7856
8299
8078
8166
8233
8134
8631
8198
8754
7987
8546
7917
8379
7917
8059
7943
7899
8072
7851
8072
7827
7943
7939
7856
8094
7753
8356
7836
8385
7747
8229
7932
8385
8524
8495
8650
8158
8515
7962
8423
8021
8351
8145
8179
8223
8011
8263
7968
8213
7985
8104
8157
7988
8342
7888
8457
7789
8471
7808
8365
7865
8173
8029
8041
8207
8018
8391
8072
8376
8240
8400
8493
8340
8634
8212
8564
8024
8425
8122
8346
8283
8081
8323
7882
8430
7829
8458
7871
8360
7936
8146
8004
7976
8147
7966
8191
7958
8139
8115
8031
8289
7981
8491
7868
8462
7777
8292
7781
8066
7870
7878
8070
7840
8364
7975
8393
7992
8350
8179
8236
8308
8069
8291
7875
8154
7875
8048
8024
7884
8192
7766
8350
7738
8499
7991
8792
8412
8736
8406
8344
8315
8015
8220
7908
8121
7913
7992
8068
7908
8251
7872
8387
7929
8489
8132
8339
8166
8129
8332
7958
8404
7839
8408
7831
8332
7926
8180
8053
8019
8135
7887
8046
7707
7849
7757
7668
7834
7455
7964
7418
8111
7504
8181
7782
8314
8176
8304
8421
8218
8556
8145
8466
8043
8337
8192
8264
8439
8313
8647
8323
8683
8358
8616
8587
8655
8948
8587
9052
8343
8915
8125
8644
8009
8295
7925
7867
7751
7526
7739
7513
7783
7581
7654
7723
7556
8021
7794
8541
8119
8717
8201
8491
8233
8254
8474
8317
8811
8334
8854
8276
8766
8348
8495
8265
8171
8284
8063
8289
7981
8191
8125
8105
8320
8074
8578
8004
8653
7954
8548
7936
8343
8037
8189
8251
8136
8421
8073
8409
8015
8263
8145
8164
8242
7971
8276
7859
8207
7767
7928
7582
7423
7483
7128
7578
7039
7734
7210
7996
7663
8289
8165
8428
8431
8235
8426
8245
8498
8255
8243
8209
7909
8190
7748
8408
7964
8559
8026
8452
8138
8235
8306
8212
8681
8365
8904
8368
8773
8374
8563
8375
8354
8513
8279
8507
8188
8415
8249
8227
8313
7990
8387
7810
8435
7759
8435
7827
8304
7836
7919
7719
7519
7665
7338
7589
7276
7526
7470
7611
7909
7906
8491
8157
8677
8231
8529
8180
8146
8133
7888
8377
7961
8602
8033
8692
8150
8538
8220
8372
8332
8231
8436
8237
8546
8431
8497
8470
8227
8524
8098
8647
7986
8584
7985
8439
8043
8228
8159
8022
8251
7864
8277
7805
8218
7899
8154
8048
8035
8200
7920
8207
7900
8160
7894
7907
7938
7688
8053
7502
8088
7395
8056
7417
7925
7456
7715
7698
7791
8069
7836
8017
7692
7957
7901
7967
8088
7894
8362
7903
8461
8104
8584
8234
8401
8380
8314
8667
8159
8622
8018
8670
8239
8760
8584
8864
8925
8970
9136
8827
8974
8706
8714
8611
8388
8596
8089
8593
7937
8565
7957
8533
8079
8346
8175
8104
8262
7963
8358
7974
8353
8015
8240
8152
8101
8237
7955
8276
7891
8191
7905
8066
8068
7877
8186
7715
8282
7642
8300
7638
8197
7715
7975
7772
7776
7892
7691
7947
7708
7917
7741
7698
7793
7548
8005
7572
8168
7665
8211
7899
8267
8198
8129
8344
7964
8415
7882
8427
7916
8377
8080
8296
8310
8267
8478
8211
8382
8067
8146
8109
7993
8254
7833
8353
7720
8406
7793
8468
8012
8355
8122
8119
8151
7870
8142
7743
8075
7794
8021
7963
7986
8308
8064
8398
7990
8387
8036
8205
8093
8017
8289
7947
8519
7961
8707
8055
8598
8169
8596
8349
8380
8535
8457
8644
8325
8480
8346
8303
8369
8040
8384
7859
8425
7858
8401
7873
8200
8027
8147
8344
8081
8392
7861
8368
7937
8449
8176
8337
8280
8190
8321
7978
8193
7909
8097
8013
7934
8147
7772
8250
7595
8266
7628
8307
7808
8266
7970
8067
8094
7988
8312
8066
8371
8089
8353
8382
8404
8623
8294
8628
8159
8549
8118
8361
8199
8211
8343
7987
8375
7791
8379
7728
8279
7762
8132
7891
7980
8047
7914
8154
7945
8114
7928
7933
8062
7824
8221
7735
8336
7692
8243
7678
8113
7823
7935
7984
7857
8265
7939
8465
8118
8594
8421
8607
8556
8448
8580
8216
8493
8222
8449
8226
8149
8221
7884
8321
7758
8399
7662
8321
7829
8437
8181
8427
8393
8209
8307
8076
8461
8192
8286
8180
8110
8320
8019
8461
7943
8389
7897
8267
8019
8100
8150
7912
8313
7858
8467
7910
8450
7944
8295
8010
8094
8103
7951
8136
7914
8157
7999
8033
8091
7856
8187
7612
8156
7505
8139
7573
8107
7737
7949
7889
7866
8357
8226
8661
8254
8608
8342
8489
8442
8328
8458
8062
8388
8040
8304
8048
8065
8146
7935
8344
7778
8332
7577
8157
7545
8127
7759
7997
7864
7779
7871
7588
7977
7991
8256
8237
8262
8590
8304
8710
8177
8606
7914
8301
8015
8264
8290
8249
8686
8276
8718
8234
8819
8293
8581
8250
8354
8400
8293
8471
8171
8392
8194
8256
8222
8020
8310
7794
8349
7722
8439
7878
8548
8150
8478
8434
8415
8524
8196
8518
8152
8457
8162
8267
8193
8025
8214
7838
8185
7753
8123
7851
8023
8005
7879
8231
7755
8331
7713
8376
7744
8262
7844
8126
7982
7987
8129
7925
8131
7876
8010
7909
7859
8069
7744
8192
7649
8267
7725
8294
7897
8218
8098
8061
8258
7934
8350
7841
8306
7807
8100
7815
7956
8015
7928
8228
8013
8344
8139
8314
8311
8151
8369
7906
8468
7873
8597
7961
8551
8015
8360
8224
8300
8324
7996
8198
7858
8140
7925
8029
7978
7922
8325
8012
8415
7975
8407
8032
8245
8167
8153
8385
7958
8441
7841
8447
7861
8363
7864
8114
7905
7908
8000
7834
8088
7942
8239
8226
8259
8563
8407
8898
8312
8905
8304
8868
8305
8623
8334
8318
8339
8076
8422
7971
8397
7942
8273
8008
8068
8028
7822
7978
7579
7842
7559
7767
7722
7760
8130
7957
8686
8185
8875
8156
8716
8117
8496
8238
8333
8329
8192
8415
8058
8284
8013
8152
8150
8020
8246
7888
8358
7945
8404
7869
8115
7923
7966
8171
7850
8301
7792
8416
7873
8475
8084
8415
8214
8214
8243
8021
8250
8024
8245
8175
8186
8333
8061
8487
7918
8496
7813
8400
7826
8227
7903
8007
7994
7755
8056
7733
8187
7804
8165
7996
8134
8220
8130
8447
8170
8529
8246
8536
8400
8368
8490
8089
8489
7855
8503
7849
8487
7915
8321
7966
8083
8039
7926
8125
7875
8115
7923
8052
8040
7935
8241
7930
8499
7999
8485
8012
8404
8173
8259
8324
8085
8456
7964
8482
7892
8356
7862
8117
7871
7893
8000
7868
8126
7904
8136
8060
8198
8380
8136
8579
8128
8768
8042
8561
7829
8224
7755
7921
7917
7857
8133
7844
8297
8050
8430
8290
8418
8484
8282
8490
8064
8416
8003
8278
8025
8035
8107
7851
8244
7718
8354
7742
8441
7933
8488
8205
8400
8300
8200
8370
8110
8357
8140
8235
8212
8090
8353
7952
8438
7878
8425
7848
8270
7909
8102
8068
7912
8199
7785
8270
7804
8318
7918
8245
8049
8097
8185
7999
8260
7979
8217
8037
8101
8186
7965
8319
7780
8364
7667
8324
7690
8273
7873
8200
8148
8217
8473
8200
8465
8113
8334
8051
8047
8064
7898
8191
7831
8323
7973
8462
8300
8518
8520
8298
8552
8029
8564
7920
8475
7838
8312
7931
8156
8096
8062
8224
8013
8268
8051
8189
8154
8044
8314
7961
8468
7879
8501
7901
8436
8019
8243
8093
8021
8208
7857
8294
7863
8354
8003
8352
8189
8244
8321
8104
8378
8056
8306
8052
8148
8131
7961
8273
7803
8386
7720
8400
7757
8354
7912
8280
8125
8163
8270
8042
8282
7976
8220
8034
8087
8162
7976
8303
7883
8365
7886
8324
7981
8208
8126
8043
8289
7911
8468
7911
8497
7935
8433
8055
8284
8177
8159
8300
8093
8326
8101
8244
8191
8095
8318
7951
8448
7862
8481
7838
8396
7884
8222
8025
8065
8185
7926
8264
7884
8342
7995
8264
8095
8141
8237
8013
8295
7930
8241
