EMG
8043
8022
8097
8014
8087
8027
8036
8072
7962
8135
7909
8174
7886
8195
7899
8150
7957
8088
8030
8005
8081
7950
8124
7954
8110
7974
8049
8026
7984
8072
7948
8094
7941
8066
7988
8020
8055
7951
8128
7888
8181
7875
8184
7891
8158
7949
8080
8021
8028
8077
7995
8092
7999
8060
8040
8005
8102
7954
8149
7922
8174
7926
8137
7974
8073
8052
7989
8124
7930
8157
7909
8155
7927
8111
7986
8048
8030
7995
8063
7971
8057
7987
8016
8043
7953
8115
7899
8168
7870
8194
7888
8164
7939
8097
8017
8018
8081
7975
8121
7974
8106
7998
8068
8050
8009
8102
7966
8126
7960
8123
7996
8057
8056
7980
8143
7914
8188
7884
8192
7903
8165
7945
8078
7991
8010
8049
7984
8067
7969
8025
8010
7980
8071
7915
8132
7889
8148
7890
8135
7939
8088
8022
8009
8108
7951
8154
7923
8151
7951
8125
8007
8066
8060
8012
8097
7988
8096
8011
8053
8066
7986
8136
7920
8188
7886
8206
7885
8171
7929
8106
7991
8034
8070
7977
8091
7956
8080
7983
8039
8035
7987
8087
7935
8123
7928
8109
7958
8052
8033
7987
8116
7918
8167
7883
8192
7898
8165
7959
8114
8028
8045
8081
8023
8103
8013
8060
8042
8001
8099
7944
8149
7900
8186
7898
8166
7939
8118
8017
8036
8098
7965
8141
7938
8136
7944
8102
7998
8056
8060
7997
8090
7968
8081
7981
8043
8027
7973
8111
7908
8162
7872
8188
7876
8180
7929
8131
8001
8058
8075
8006
8106
7999
8104
8015
8056
8062
8008
8130
7961
8152
7945
8145
7966
8103
8030
8014
8110
7946
8162
7908
8187
7906
8148
7933
8090
8002
8038
8053
7986
8076
7986
8059
8028
7996
8092
7940
8150
7896
8180
7888
8175
7927
8119
7996
8053
8067
7984
8134
7965
8147
7972
8117
8020
8058
8064
8003
8111
7978
8112
7990
8072
8048
8020
8117
7938
8181
7893
8211
7885
8192
7926
8137
7982
8067
8055
8008
8088
7992
8088
8013
8051
8059
7975
8102
7922
8145
7912
8148
7942
8117
8007
8031
8095
7960
8160
7929
8188
7922
8163
7969
8115
8037
8058
8084
8012
8096
8004
8083
8040
8021
8109
7962
8180
7916
8225
7904
8204
7932
8148
7973
8058
8048
7987
8094
7958
8119
7962
8098
8007
8043
8060
7989
8103
7949
8110
7966
8081
8020
8014
8100
7952
8168
7902
8201
7888
8200
7933
8159
7995
8086
8055
8030
8099
8004
8101
8037
8065
8080
8008
8137
7948
8183
7922
8187
7943
8135
7990
8052
8078
7987
8147
7941
8179
7930
8153
7966
8108
8014
8037
8064
7995
8090
7987
8073
8018
8016
8091
7958
8159
7906
8206
7888
8203
7914
8168
7984
8103
8054
8027
8128
8002
8138
8001
8103
8028
8044
8078
7987
8125
7956
8138
7962
8120
8025
8051
8097
7970
8166
7923
8207
7900
8199
7934
8164
7997
8093
8042
8022
8086
8001
8088
8023
8045
8074
7993
8127
7936
8170
7904
8186
7921
8153
7983
8094
8069
8010
8146
7964
8174
7950
8148
7975
8102
8028
8043
8087
8014
8119
8002
8100
8027
8047
8102
7974
8168
7909
8206
7889
8214
7909
8179
7967
8111
8040
8037
8090
7996
8112
7989
8092
8027
8039
8086
7986
8135
7955
8150
7951
8137
8006
8080
8082
8001
8154
7937
8196
7911
8188
7934
8161
7982
8090
8046
8033
8089
8009
8087
8020
8058
8069
7994
8134
7939
8200
7903
8211
7925
8183
7978
8117
8043
8020
8116
7966
8153
7955
8146
7983
8102
8037
8037
8082
7994
8107
7981
8099
8015
8048
8072
7984
8158
7922
8208
7898
8234
7917
8198
7972
8142
8041
8056
8093
8006
8108
7995
8085
8035
8040
8094
7981
8151
7945
8175
7940
8155
7990
8102
8069
8018
8145
7953
8180
7918
8181
7939
8153
7986
8088
8040
8030
8091
8007
8097
8020
8061
8076
8007
8148
7949
8204
7909
8213
7907
8190
7962
8131
8036
8054
8107
7995
8148
7978
8137
7991
8092
8041
8040
8109
8000
8133
7988
8138
8006
8083
8086
8022
8167
7951
8208
7909
8230
7912
8194
7961
8137
8021
8058
8079
8017
8106
8010
8088
8039
8037
8094
7975
8154
7948
8193
7933
8168
7967
8119
8055
8042
8134
7978
8183
7944
8204
7954
8158
7999
8097
8052
8039
8093
8009
8104
8019
8069
8066
8009
8133
7938
8191
7899
8229
7903
8203
7950
8146
8015
8072
8102
8013
8140
7986
8129
8005
8097
8062
8048
8109
7993
8144
7977
8154
8006
8108
8062
8026
8144
7958
8200
7918
8242
7926
8208
7967
8154
8030
8074
8077
8025
8097
8009
8087
8047
8043
8109
7984
8167
7940
8204
7928
8183
7959
8136
8033
8074
8115
7991
8168
7951
8182
7949
8141
7994
8094
8061
8042
8112
8018
8125
8022
8097
8077
8032
8145
7966
8206
7919
8244
7910
8220
7945
8164
8003
8081
8078
8021
8117
7989
8123
8009
8090
8058
8031
8110
7985
8157
7967
8165
7987
8119
8045
8043
8130
7964
8184
7922
8210
7923
8199
7960
8151
8018
8076
8081
8038
8109
8022
8107
8062
8068
8121
7997
8181
7944
8227
7926
8213
7962
8164
8015
8088
8096
8005
8153
7956
8155
7955
8132
7998
8083
8054
8024
8108
8002
8126
8007
8098
8049
8033
8128
7968
8194
7916
8238
7904
8217
7937
8176
7998
8106
8066
8030
8107
8005
8131
8035
8105
8088
8057
8152
8002
8198
7976
8195
7990
8153
8040
8082
8117
7995
8187
7944
8212
7933
8190
7955
8131
8004
8064
8059
8024
8095
8002
8082
8034
8036
8092
7972
8169
7933
8206
7905
8205
7933
8168
7998
8104
8081
8024
8142
7977
8164
7983
8148
8034
8111
8094
8060
8146
8021
8173
8023
8141
8065
8071
8136
8001
8198
7942
8240
7915
8224
7932
8183
7983
8099
8048
8028
8087
8001
8105
8017
8077
8066
8025
8123
7963
8157
7936
8186
7942
8142
7997
8081
8089
8002
8160
7959
8199
7942
8203
7974
8150
8026
8091
8088
8049
8135
8042
8133
8073
8091
8143
8019
8199
7956
8249
7925
8248
7943
8198
7989
8129
8061
8032
8111
7979
8133
7974
8116
8007
8082
8071
8018
8115
7977
8139
7980
8125
8022
8061
8107
7994
8176
7945
8229
7925
8251
7948
8194
7992
8129
8057
8072
8116
8038
8130
8046
8110
8111
8065
8176
8003
8212
7953
8221
7966
8190
8008
8117
8078
8030
8139
7968
8185
7942
8170
7960
8128
8010
8071
8078
8029
8116
8011
8102
8040
8067
8094
8003
8173
7945
8224
7907
8228
7921
8203
7970
8141
8042
8067
8131
8021
8163
8020
8146
8054
8102
8107
8050
8162
8008
8189
8001
8175
8039
8118
8112
8033
8174
7964
8218
7921
8212
7919
8175
7972
8112
8035
8054
8087
8023
8111
8027
8082
8070
8018
8128
7966
8192
7933
8222
7944
8209
7988
8141
8052
8049
8129
7989
8188
7970
8184
7982
8144
8040
8093
8101
8045
8152
8029
8159
8067
8116
8117
8033
8173
7949
8218
7913
8239
7907
8200
7953
8145
8022
8064
8086
8019
8118
8002
8108
8029
8076
8089
8022
8146
7971
8181
7963
8167
7999
8116
8074
8040
8148
7972
8209
7937
8224
7953
8200
7996
8148
8054
8077
8112
8044
8127
8048
8105
8089
8050
8148
7986
8214
7943
8246
7934
8220
7974
8162
8043
8084
8121
8009
8169
7979
8164
7989
8132
8034
8071
8088
8022
8136
8008
8153
8025
8114
8079
8037
8159
7974
8221
7932
8258
7931
8235
7967
8176
8037
8095
8095
8049
8124
8031
8128
8054
8089
8110
8027
8162
7976
8204
7965
8199
7993
8161
8068
8075
8135
7993
8196
7945
8207
7947
8180
7986
8132
8047
8071
8101
8034
8126
8038
8103
8074
8045
8139
7973
8200
7932
8254
7927
8228
7963
8184
8023
8112
8112
8035
8154
7995
8176
8010
8141
8054
8082
8111
8033
8152
8007
8170
8012
8129
8074
8059
8155
7986
8207
7930
8229
7913
8221
7959
8171
8010
8094
8077
8043
8109
8024
8110
8051
8082
8099
8017
8155
7971
8206
7951
8212
7979
8171
8040
8101
8118
8012
8181
7966
8203
7956
8177
7988
8127
8055
8077
8116
8046
8140
8040
8119
8075
8064
8146
7999
8211
7945
8253
7930
8243
7953
8197
8005
8113
8077
8048
8139
8001
8150
8016
8134
8063
8083
8117
8025
8164
7996
8173
8000
8151
8064
8090
8132
8002
8196
7952
8244
7936
8240
7966
8194
8023
8130
8086
8065
8124
8041
8125
8058
8085
8112
8029
8190
7979
8230
7951
8226
7966
8198
8027
8124
8104
8032
8160
7978
8196
7977
8179
8003
8129
8058
8077
8115
8037
8143
8026
8125
8055
8068
8142
8015
8209
7949
8255
7928
8262
7947
8208
8003
8138
8072
8056
8111
8022
8136
8026
8133
8072
8083
8139
8035
8180
7994
8202
8001
8173
8041
8103
8118
8017
8187
7957
8224
7936
8237
7960
8186
8011
8118
8078
8060
8124
8045
8130
8058
8094
8114
8044
8187
7975
8223
7931
8221
7947
8200
8000
8135
8093
8059
8151
8002
8190
7985
8172
8013
8131
8067
8077
8131
8044
8159
8030
8156
8057
8088
8120
8012
8183
7949
8235
7923
8255
7932
8213
7992
8152
8058
8079
8113
8042
8145
8038
8128
8075
8068
8121
8007
8177
7973
8211
7975
8185
8023
8125
8094
8039
8166
7981
8209
7946
8232
7974
8195
8026
8133
8086
8078
8131
8052
8143
8062
8109
8109
8043
8176
7975
8230
7940
8259
7936
8210
7976
8157
8054
8073
8124
8011
8170
7999
8165
8024
8123
8068
8064
8128
8015
8147
8005
8164
8040
8114
8109
8040
8187
7982
8241
7939
8257
7936
8223
7984
8167
8057
8104
8119
8054
8147
8053
8130
8081
8083
8142
8024
8202
7976
8224
7966
8208
8003
8159
8083
8076
8149
7998
8204
7963
8210
7967
8171
8024
8122
8077
8062
8117
8035
8132
8043
8096
8100
8052
8172
7987
8232
7940
8269
7930
8236
7979
8180
8046
8105
8120
8035
8165
8012
8160
8035
8128
8086
8076
8144
8028
8193
8003
8172
8027
8137
8097
8058
8167
7981
8217
7936
8247
7937
8224
7980
8165
8040
8099
8096
8050
8126
8037
8118
8071
8070
8127
8012
8197
7962
8240
7956
8221
7986
8174
8054
8088
8131
8024
8199
7995
8217
7988
8180
8027
8120
8081
8064
8123
8032
8140
8045
8134
8098
8061
8175
7998
8225
7941
8261
7927
8240
7963
8181
8025
8114
8089
8047
8148
8023
8151
8034
8123
8088
8065
8140
8004
8178
7989
8199
8017
8153
8062
8078
8136
7995
8209
7960
8256
7948
8230
7993
8190
8055
8119
8113
8061
8134
8051
8133
8083
8085
8152
8030
8212
7970
8252
7953
8241
7981
8185
8031
8114
8121
8039
8177
7998
8202
7997
8169
8037
8121
8085
8061
8137
8035
8159
8034
8131
8073
8065
8154
7996
8220
7948
8265
7937
8263
7959
8204
8020
8133
8092
8073
8156
8042
8150
8054
8124
8103
8070
8157
8009
8208
7982
8207
7999
8168
8053
8108
8140
8020
8195
7967
8234
7952
8229
7978
8168
8030
8096
8096
8057
8127
8050
8133
8079
8085
8139
8014
8200
7960
8242
7933
8246
7960
8210
8028
8139
8109
8057
8162
8007
8190
8010
8170
8051
8124
8103
8072
8154
8028
8175
8029
8152
8070
8101
8151
8023
8214
7963
8262
7939
8270
7965
8214
8020
8151
8079
8074
8127
8042
8141
8051
8107
8088
8057
8151
8009
8219
7973
8222
7983
8192
8043
8128
8115
8043
8185
7993
8228
7969
8228
7997
8185
8047
8119
8111
8067
8148
8058
8146
8077
8095
8142
8038
8209
7976
8268
7945
8273
7954
8216
8000
8151
8070
8069
8137
8014
8166
8009
8148
8036
8103
8090
8044
8143
8004
8178
8012
8168
8051
8115
8126
8028
8188
7966
8239
7942
8262
7957
8224
8016
8156
8073
8092
8134
8066
8155
8075
8135
8113
8071
8168
7999
8211
7965
8234
7976
8211
8018
8141
8095
8070
8163
7995
8206
7979
8212
7996
8167
8052
8113
8108
8066
8141
8039
8156
8063
8103
8124
8036
8194
7978
8263
7941
8271
7946
8236
8000
8178
8065
8103
8137
8053
8170
8036
8164
8069
8118
8129
8059
8160
8006
8196
8004
8185
8035
8128
8107
8051
8186
7977
8224
7943
8246
7952
8214
7997
8154
8052
8081
8109
8055
8135
8054
8119
8094
8063
8174
8005
8231
7968
8264
7969
8233
8005
8172
8081
8102
8150
8025
8193
7993
8211
8010
8169
8066
8119
8118
8068
8157
8036
8163
8055
8128
8119
8056
8183
7988
8242
7939
8269
7938
8242
7984
8179
8042
8110
8122
8053
8169
8050
8157
8070
8112
8120
8047
8168
7996
8207
7988
8198
8015
8146
8083
8070
8160
7995
8219
7961
8255
7971
8218
8006
8167
8074
8099
8125
8068
8145
8060
8124
8095
8069
8172
8009
8229
7955
8260
7951
8248
7994
8194
8047
8113
8130
8038
8181
8009
8196
8025
8163
8063
8106
8124
8049
8160
8027
8172
8038
8137
8107
8068
8173
8001
8242
7951
8275
7947
8264
7985
8204
8044
8135
8124
8075
8162
8061
8155
8083
8120
8124
8049
8190
7997
8234
7983
8219
8011
8179
8076
8108
8151
8025
8211
7973
8226
7963
8213
8011
8150
8065
8087
8116
8056
8145
8052
8128
8090
8075
8162
8012
8225
7958
8270
7946
8257
7978
8213
8040
8136
8117
8059
8171
8020
8189
8035
8160
8073
8118
8136
8051
8176
8026
8199
8041
8166
8087
8089
8157
8007
8222
7950
8264
7940
8256
7972
8204
8039
8148
8104
8071
8141
8053
8133
8062
8104
8125
8049
8192
7996
8240
7970
8246
7992
8189
8055
8126
8131
8040
8199
7999
8226
7990
8223
8023
8171
8080
8105
8131
8065
8163
8057
8148
8090
8082
8155
8013
8221
7962
8269
7940
8270
7961
8213
8016
8144
8100
8069
8148
8027
8175
8032
8144
8078
8100
8133
8047
8188
8012
8200
8017
8174
8066
8117
8151
8035
8215
7976
8254
7947
8253
7970
8212
8034
8154
8097
8091
8147
8067
8147
8075
8106
8128
8053
8203
8001
8259
7973
8258
7985
8212
8019
8136
8100
8053
8172
8002
8194
7982
8190
8021
8156
8073
8089
8127
8050
8156
8048
8160
8073
8108
8144
8023
8213
7964
8269
7943
8270
7959
8232
8021
8174
8086
8109
8165
8058
8182
8058
8156
8092
8107
8153
8052
8203
8005
8223
8010
8191
8051
8128
8125
8049
8203
7988
8244
7962
8252
7981
8205
8025
8144
8083
8079
8133
8057
8139
8072
8112
8137
8053
8204
7999
8259
7959
8265
7965
8218
8011
8156
8090
8085
8159
8024
8205
8015
8200
8030
8149
8086
8101
8140
8050
8171
8036
8173
8074
8121
8125
8042
8202
7974
8258
7945
8272
7956
8244
8008
8176
8073
8094
8139
8059
8158
8050
8141
8083
8093
8146
8039
8206
7994
8225
7990
8210
8029
8154
8112
8073
8183
7999
8237
7972
8253
7985
8215
8039
8163
8098
8089
8142
8063
8150
8076
8120
8133
8061
8202
8007
8263
7968
8282
7962
8245
7999
8174
8068
8102
8142
8037
8180
8010
8181
8035
8140
8091
8089
8152
8047
8194
8034
8192
8056
8145
8132
8070
8208
8007
8259
7950
8274
7951
8239
7993
8170
8053
8099
8117
8068
8159
8063
8144
8091
8088
8151
8033
8217
7988
8255
7984
8222
8013
8173
8090
8095
8158
8017
8218
7977
8245
7993
8210
8036
8141
8096
8090
8141
8052
8156
8066
8136
8123
8067
8184
7997
8243
7953
8279
7955
8260
7991
8201
8061
8123
8146
8064
8185
8038
8190
8052
8146
8112
8094
8161
8049
8215
8030
8208
8042
8159
8105
8077
8171
7996
8226
7952
8266
7951
8236
7989
8184
8055
8111
8116
8064
8146
8061
8133
8091
8091
8154
8036
8218
7986
8258
7974
8238
8004
8196
8080
8121
8153
8047
8215
8004
8225
8003
8206
8047
8143
8105
8087
8148
8054
8178
8069
8148
8122
8091
8191
8024
8244
7954
8277
7939
8253
7966
8199
8032
8136
8115
8058
8163
8034
8160
8048
8128
8099
8077
8164
8031
8213
8009
8214
8029
8180
8094
8105
8171
8030
8232
7975
8265
7965
8256
8010
8202
8063
8127
8125
8083
8159
8072
8147
8102
8110
8166
8038
8218
7987
8271
7969
8259
7994
8210
8048
8122
8124
8050
8180
8002
8204
8002
8172
8029
8123
8096
8077
8153
8044
8184
8046
8153
8092
8098
8171
8021
8242
7980
8296
7955
8287
7986
8218
8038
8156
8118
8087
8165
8059
8166
8070
8143
8123
8090
8189
8029
8227
7992
8220
8005
8183
8059
8116
8138
8035
8214
7982
8243
7970
8248
8002
8199
8061
8129
8120
8082
8145
8054
8145
8088
8098
8153
8037
8216
7983
8266
7954
8272
7984
8226
8034
8156
8124
8094
8195
8045
8212
8032
8189
8058
8132
8113
8081
8165
8044
8192
8048
8180
8085
8114
8158
8033
8222
7960
8267
7937
8272
7970
8221
8026
8161
8093
8094
8153
8057
8152
8067
8127
8112
8075
8176
8025
8235
7986
8232
7990
8202
8046
8144
8129
8061
8201
8001
8235
7987
8257
8013
8203
8069
8136
8132
8088
8162
8071
8164
8094
8110
8152
8047
8214
7980
8270
7950
8279
7965
8227
8014
8158
8092
8097
8154
8037
8187
8032
8169
8063
8133
8123
8068
8169
8033
8199
8025
8183
8072
8136
8151
8054
8228
7992
8282
7970
8290
7990
8245
8031
8171
8087
8104
8155
8070
8167
8083
8145
8130
8085
8189
8015
8240
7974
8241
7977
8218
8026
8160
8113
8087
8186
8016
8215
7987
8219
8000
8178
8051
8114
8114
8072
8160
8052
8167
8075
8125
8139
8051
8208
7983
8270
7949
8290
7965
8250
8018
8193
8094
8125
8160
8063
8186
8047
8177
8081
8134
8132
8079
8194
8029
8219
8020
8201
8049
8139
8128
8078
8194
7992
8250
7960
8270
7973
8237
8029
8183
8086
8100
8133
8067
8148
8073
8134
8112
8072
8185
8015
8249
7981
8271
7978
8242
8020
8182
8100
8108
8170
8041
8221
8009
8223
8026
8179
8073
8131
8136
8083
8175
8061
8190
8077
8142
8126
8057
8199
7992
8253
7952
8290
7954
8247
7994
8192
8064
8122
8138
8064
8170
8052
8163
8072
8121
8124
8065
8199
8020
8230
8004
8217
8037
8170
8110
8095
8186
8017
8245
7981
8277
7989
8255
8041
8189
8091
8122
8147
8086
8164
8076
8135
8114
8079
8181
8020
8237
7968
8277
7959
8245
8001
8189
8059
8121
8146
8047
8202
8017
8207
8028
8170
8076
8122
8130
8061
8171
8040
8193
8063
8156
8126
8091
8197
8012
8255
7965
8289
7956
8263
7993
8209
8061
8148
8144
8095
8186
8077
8174
8093
8119
8131
8057
8191
8005
8234
7988
8227
8017
8176
8083
8100
8159
8024
8224
7988
8245
7978
8237
8023
8171
8078
8111
8137
8070
8162
8072
8156
8106
8089
8183
8031
8247
7976
8297
7967
8277
7987
8213
8056
8150
8142
8075
8198
8044
8215
8048
8180
8096
8125
8146
8067
8184
8032
8208
8055
8170
8105
8100
8180
8033
8247
7963
8284
7957
8270
7983
8207
8048
8151
8116
8084
8153
8069
8144
8081
8111
8133
8058
8204
8013
8247
7988
8246
8007
8203
8078
8133
8153
8055
8225
8015
8254
8007
8245
8038
8192
8090
8125
8146
8079
8165
8069
8159
8107
8101
8182
8032
8235
7969
8278
7951
8274
7978
8227
8039
8163
8117
8085
8173
8043
8184
8043
8154
8086
8111
8141
8050
8189
8026
8213
8031
8181
8090
8117
8156
8033
8233
7978
8273
7963
8273
7990
8216
8053
8160
8111
8100
8160
8074
8160
8086
8125
8138
8067
8208
8004
8260
7975
8273
7999
8230
8052
8156
8137
8077
8193
8015
8217
8000
8220
8027
8160
8080
8101
8142
8073
8167
8056
8164
8088
8109
8165
8034
8230
7987
8286
7960
8295
7976
8244
8035
8177
8114
8115
8166
8061
8190
8064
8163
8100
8116
8161
8058
8210
8010
8221
8022
8203
8065
8136
8140
8047
8205
7993
8253
7976
8268
7991
8216
8047
8152
8099
8090
8138
8062
8151
8090
8119
8147
8063
8209
8006
8267
7974
8283
7982
8239
8036
8167
8115
8101
8186
8040
8221
8022
8222
8056
8174
8105
8114
8156
8066
8193
8051
8183
8085
8134
8147
8050
8222
7985
8287
7960
8295
7971
8243
8020
8182
8087
8108
8151
8072
8187
8072
8155
8100
8102
8167
8045
8210
8006
8234
8006
8216
8042
8147
8126
8080
8203
8019
8252
7991
8270
8005
8227
8061
8187
8122
8107
8151
8072
8159
8079
8122
8138
8069
8208
8004
8266
7959
8283
7959
8239
8009
8182
8082
8111
8162
8051
8206
8031
8212
8060
8169
8103
8092
8154
8050
8195
8037
8183
8065
8153
8141
8073
8213
8005
8266
7962
8291
7971
8259
8022
8203
8089
8136
8154
8082
8169
8077
8163
8111
8113
8178
8050
8225
8001
8260
7992
8223
8030
8169
8101
8095
8182
8025
8231
7995
8253
8003
8213
8049
8165
8108
8090
8153
8065
8175
8081
8142
8144
8083
8208
8016
8266
7967
8292
7968
8269
8009
8202
8074
8141
8154
8068
8203
8047
8203
8067
8161
8111
8095
8165
8045
8211
8034
8204
8061
8159
8125
8088
8195
8016
8255
7974
8284
7965
8260
8008
8194
8072
8134
8129
8071
8157
8079
8154
8111
8106
8180
8046
8228
7990
8263
7982
8242
8016
8190
8093
8119
8163
8043
8224
8012
8254
8019
8228
8066
8160
8121
8095
8164
8073
8188
8076
8154
8136
8085
8201
8017
8255
7969
8294
7951
8259
7994
8212
8053
8140
8138
8075
8182
8052
8175
8066
8145
8114
8091
8169
8040
8212
8013
8216
8043
8178
8112
8107
8184
8030
8245
7985
8290
7985
8266
8021
8211
8083
8148
8137
8090
8163
8084
8161
8113
8107
8177
8046
8236
7994
8280
7968
8254
8005
8211
8081
8143
8159
8057
8196
8006
8218
8011
8199
8053
8146
8124
8102
8175
8061
8193
8062
8156
8118
8099
8187
8023
8256
7984
8299
7961
8285
7994
8230
8054
8167
8134
8098
8179
8068
8178
8079
8149
8127
8091
8184
8023
8229
8006
8224
8021
8190
8082
8118
8161
8041
8234
7991
8269
7977
8256
8005
8204
8070
8130
8128
8085
8159
8079
8166
8113
8119
8175
8047
8234
7996
8280
7968
8275
7991
8224
8060
8167
8149
8096
8200
8036
8219
8036
8191
8067
8143
8124
8094
8183
8054
8197
8052
8170
8091
8111
8167
8025
8228
7967
8275
7950
8277
7985
8232
8046
8177
8125
8104
8169
8070
8171
8084
8140
8122
8086
8194
8032
8250
8011
8252
8016
8218
8078
8149
8144
8062
8209
8013
8263
8002
8267
8029
8212
8080
8138
8136
8090
8161
8067
8161
8092
8108
8172
8057
8225
7990
8284
7964
8286
7982
8239
8038
8172
8110
8103
8175
8049
8202
8044
8187
8080
8140
8132
8094
8195
8037
8205
8032
8190
8077
8134
8156
8052
8227
7992
8288
7973
8295
7990
8249
8045
8190
8108
8113
8165
8080
8165
8085
8142
8127
8086
8202
8027
8248
7991
8252
7993
8229
8048
8160
8125
8085
8195
8020
8238
8006
8245
8025
8205
8074
8137
8144
8087
8164
8060
8175
8094
8136
8156
8061
8225
7997
8279
7962
8297
7976
8262
8030
8198
8115
8141
8177
8072
8206
8061
8187
8088
8132
8133
8069
8182
8023
8225
8030
8205
8064
8152
8140
8078
8212
8000
8253
7966
8271
7974
8234
8035
8172
8097
8107
8145
8079
8166
8082
8133
8123
8086
8201
8022
8257
7992
8277
7989
8251
8028
8181
8113
8117
8187
8051
8232
8022
8242
8037
8199
8083
8134
8140
8083
8177
8071
8190
8081
8140
8140
8059
8221
8001
8274
7964
8297
7966
8261
8010
8197
8076
8134
8155
8073
8187
8054
8163
8083
8123
8136
8077
8208
8028
8253
8023
8228
8059
8179
8130
8098
8203
8027
8258
7983
8278
7994
8249
8037
8191
8101
8124
8151
8084
8167
8086
8140
8125
8084
8190
8017
8255
7975
8283
7969
8251
8014
8199
8089
8122
8169
8055
8212
8023
8221
8042
8193
8089
8125
8143
8071
8180
8060
8195
8071
8158
8139
8091
8208
8013
8270
7981
8304
7974
8278
8007
8213
8080
8147
8151
8092
8187
8077
8176
8101
8130
8155
8077
8221
8028
8255
8009
8234
8029
8183
8100
8105
8165
8028
8231
7984
8267
7987
8245
8032
8183
8098
8122
8150
8080
8170
8079
8154
8123
8096
8196
8031
8251
7981
8295
7975
8284
8004
8221
8084
8147
8149
8068
8203
8044
8217
8055
8182
8100
8134
8170
8083
8205
8045
8208
8060
8171
8116
8098
8186
8024
8249
7971
8290
7966
8278
8005
8223
8070
8164
8145
8099
8174
8069
8162
8095
8126
8143
8060
8209
8005
8262
7992
8255
8023
8207
8093
8138
8162
8055
8224
8011
8265
8005
8243
8042
8188
8105
8120
8156
8081
8178
8080
8161
8112
8103
8180
8027
8238
7975
8292
7964
8288
7992
8230
8058
8165
8141
8091
8188
8051
8203
8059
8176
8101
8120
8154
8061
8207
8034
8219
8044
8188
8104
8133
8179
8043
8250
7994
8299
7983
8295
8014
8235
8064
8171
8142
8102
8180
8084
8166
8102
8129
8169
8075
8226
8016
8269
7992
8277
8005
8225
8054
8153
8148
8082
8214
8029
8244
8012
8232
8043
8185
8102
8106
8150
8079
8188
8073
8174
8107
8119
8175
8050
8248
7992
8294
7966
8296
7993
8250
8045
8182
8124
8117
8180
8069
8199
8071
8166
8111
8116
8165
8057
8229
8025
8233
8025
8198
8085
8130
8158
8055
8224
7991
8263
7968
8268
7998
8225
8057
8167
8122
8104
8163
8077
8160
8095
8148
8164
8072
8222
8012
8270
7971
8280
7986
8235
8043
8179
8127
8104
8196
8045
8236
8033
8235
8051
8181
8113
8118
8165
8074
8199
8066
8184
8091
8136
8159
8056
8231
7989
8289
7955
8282
7972
8248
8028
8191
8104
8122
8160
8070
8188
8073
8162
8108
8108
8177
8057
8236
8014
8243
8021
8226
8059
8165
8140
8091
8216
8018
8263
7993
8276
8018
8230
8059
8170
8120
8108
8164
8076
8179
8095
8130
8142
8067
8211
8004
8264
7966
8290
7981
8254
8026
8192
8109
8127
8180
8061
8213
8042
8217
8069
8170
8114
8112
8170
8069
8212
8045
8196
8066
8148
8137
8068
8212
8004
8272
7970
8302
7982
8274
8028
8211
8096
8137
8156
8083
8183
8080
8164
8119
8112
8190
8053
8241
8013
8260
7999
8236
8034
8183
8113
8110
8191
8034
8248
8006
8269
8022
8242
8064
8174
8116
8116
8162
8075
8168
8082
8151
8146
8088
8211
8022
8273
7977
8299
7974
8269
8011
8210
8088
8144
8160
8072
8203
8054
8204
8067
8153
8116
8109
8173
8050
8213
8032
8216
8065
8176
8129
8100
8197
8013
8249
7970
8287
7975
8269
8014
8203
8074
8145
8149
8092
8176
8086
8166
8117
8116
8184
8060
8238
8006
8275
7995
8263
8029
8214
8106
8144
8181
8065
8230
8017
8245
8020
8239
8068
8154
8117
8105
8177
8082
8196
8081
8158
8132
8087
8191
8016
8252
7974
8295
7964
8280
7996
8223
8067
8159
8145
8089
8192
8066
8201
8081
8159
8121
8100
8189
8048
8217
8021
8226
8039
8186
8107
8125
8186
8039
8247
7986
8284
7988
8282
8023
8220
8083
8154
8153
8103
8173
8091
8165
8113
8113
8179
8051
8233
7995
8274
7977
8263
8005
8231
8085
8156
8151
8086
8217
8035
8242
8040
8229
8074
8174
8126
8098
8164
8055
8187
8061
8168
8121
8110
8188
8037
8257
7984
8304
7970
8299
7997
8234
8056
8176
8141
8104
8177
8064
8175
8080
8145
8122
8094
8193
8036
8241
8007
8237
8028
8200
8091
8136
8164
8053
8232
8008
8277
7994
8270
8022
8219
8079
8161
8146
8105
8174
8096
8190
8123
8123
8181
8057
8234
7986
8267
7951
8275
7990
8236
8055
8176
8146
8109
8204
8050
8225
8042
8224
8077
8152
8132
8090
8174
8049
8202
8054
8177
8106
8124
8166
8046
8241
7988
8287
7964
8291
7988
8243
8048
8180
8124
8107
8168
8076
8172
8084
8146
8132
8097
8202
8043
8259
8011
8277
8019
8233
8085
8163
8160
8086
8222
8024
8267
8004
8266
8027
8218
8086
8145
8140
8094
8172
8082
8170
8096
8126
8167
8052
8226
7995
8281
7967
8295
7981
8249
8034
8184
8125
8114
8186
8063
8220
8059
8219
8090
8148
8143
8090
8201
8052
8222
8049
8202
8087
8145
8163
8069
8239
8003
8289
7977
8292
7994
8250
8042
8189
8103
8118
8172
8088
8185
8095
8149
8129
8090
8195
8020
8249
7988
8263
7988
8227
8050
8175
8130
8102
8204
8036
8244
8016
8253
8027
8211
8082
8145
8146
8098
8180
8078
8178
8098
8138
8160
8067
8227
8002
8290
7977
8307
7980
8269
8031
8202
8113
8140
8175
8072
8206
8065
8204
8089
8149
8144
8088
8207
8035
8231
8028
8199
8054
8154
8138
8092
8214
8013
8265
7981
8292
7993
8271
8042
8198
8114
8135
8172
8093
8177
8093
8164
8150
8095
8205
8035
8262
7996
8287
7988
8257
8028
8202
8111
8129
8190
8061
8234
8035
8249
8038
8213
8095
8145
8147
8095
8183
8062
8188
8071
8145
8135
8069
8210
8008
8278
7970
8302
7976
8283
8015
8208
8079
8144
8150
8082
8189
8064
8175
8087
8131
8144
8080
8211
8033
8250
8026
8233
8047
8180
8129
8116
8199
8039
8264
7997
8287
8002
8256
8046
8206
8103
8129
8149
8082
8166
8094
8168
8148
8109
8217
8049
8277
7989
8291
7971
8256
7996
8196
8079
8144
8171
8077
8222
8048
8236
8054
8200
8094
8135
8148
8080
8180
8051
8199
8067
8163
8137
8105
8198
8022
8264
7982
8305
7970
8285
8017
8225
8074
8162
8147
8095
8186
8076
8178
8101
8134
8147
8072
8213
8031
8256
8006
8237
8027
8194
8100
8125
8173
8045
8243
8003
8267
7996
8248
8036
8194
8096
8126
8157
8087
8170
8090
8164
8123
8107
8197
8049
8277
8001
8312
7992
8305
8014
8239
8077
8170
8147
8086
8198
8046
8217
8055
8184
8096
8130
8157
8080
8203
8046
8216
8054
8176
8116
8115
8193
8047
8255
7981
8294
7969
8279
7998
8229
8067
8167
8141
8110
8187
8082
8167
8097
8121
8156
8069
8219
8020
8267
7997
8263
8019
8223
8089
8157
8163
8085
8225
8025
8273
8019
8257
8054
8208
8115
8137
8159
8083
8175
8068
8163
8104
8120
8177
8042
8247
7987
8296
7965
8294
7989
8239
8049
8170
8125
8095
8184
8062
8209
8063
8182
8113
8134
8167
8080
8219
8036
8233
8047
8202
8107
8151
8196
8093
8255
8019
8307
7989
8286
8003
8232
8053
8174
8120
8114
8173
8081
8172
8099
8126
8154
8072
8217
8010
8269
7978
8276
8005
8237
8059
8177
8150
8096
8209
8036
8247
8022
8239
8051
8194
8105
8125
8161
8077
8191
8077
8192
8118
8135
8177
8061
8237
7998
8299
7971
8308
7993
8263
8047
8198
8116
8127
8178
8077
8199
8071
8172
8105
8119
8154
8056
8215
8013
8234
8023
8219
8069
8157
8158
8086
8230
8021
8287
7994
8282
8008
8246
8065
8192
8131
8119
8165
8089
8173
8103
8149
8155
8077
8216
8018
8276
7985
8298
7995
8262
8047
8199
8125
8126
8194
8055
8234
8041
8237
8059
8194
8109
8121
8165
8069
8198
8061
8190
8085
8149
8151
8063
8226
8002
8282
7968
8307
7983
8266
8031
8211
8112
8137
8167
8089
8190
8076
8164
8105
8115
8179
8065
8239
8017
8261
8014
8240
8060
8179
8136
8108
8206
8033
8265
8003
8278
8014
8251
8064
8182
8120
8115
8161
8078
8165
8086
8147
8159
8094
8218
8027
8283
7994
8317
8001
8282
8030
8211
8097
8135
8168
8056
8206
8045
8219
8069
8191
8116
8115
8158
8064
8210
8043
8201
8065
8157
8146
8101
8219
8020
8275
7980
8309
7984
8277
8032
8215
8092
8151
8164
8100
8188
8081
8167
8123
8121
8176
8055
8229
8010
8273
8004
8248
8038
8203
8104
8126
8187
8054
8246
8019
8266
8018
8241
8061
8182
8119
8119
8166
8087
8189
8090
8165
8146
8095
8207
8032
8279
7984
8309
7981
8289
8010
8230
8088
8157
8159
8085
8202
8063
8204
8072
8170
8118
8112
8191
8072
8238
8045
8231
8065
8179
8125
8105
8186
8030
8250
7984
8294
7984
8276
8019
8218
8075
8148
8147
8090
8166
8081
8160
8119
8125
8185
8059
8235
8007
8287
7989
8272
8025
8231
8099
8153
8171
8072
8225
8021
8241
8030
8229
8067
8175
8124
8108
8174
8080
8202
8079
8174
8142
8120
8195
8033
8247
7971
8294
7971
8296
8000
8240
8060
8169
8139
8101
8191
8071
8199
8074
8155
8127
8108
8199
8057
8248
8033
8250
8049
8211
8108
8138
8192
8069
8268
8018
8299
8002
8288
8031
8227
8082
8161
8126
8093
8162
8083
8160
8111
8117
8168
8053
8228
7992
8279
7978
8281
8002
8238
8063
8165
8142
8091
8203
8043
8232
8033
8227
8069
8176
8127
8112
8175
8071
8205
8068
8189
8124
8134
8193
8056
8253
7997
8308
7975
8303
8002
8249
8056
8189
8131
8127
8189
8084
8199
8085
8158
8130
8103
8193
8050
8250
8014
8249
8023
8211
8083
8153
8153
8078
8226
8020
8279
7998
8268
8015
8211
8071
8157
8133
8098
8172
8081
8177
8103
8138
8173
8065
8240
8012
8291
7983
8301
8005
8271
8070
8202
8139
8125
8192
8056
8221
8045
8221
8077
8160
8126
8099
8183
8067
8210
8051
8194
8093
8145
8164
8058
8237
7997
8293
7975
8303
7988
8260
8044
8196
8124
8145
8181
8088
8177
8090
8157
8133
8106
8200
8046
8255
8005
8273
8009
8238
8061
8183
8138
8109
8213
8032
8256
8004
8264
8024
8223
8079
8168
8135
8102
8167
8080
8182
8103
8144
8162
8077
8234
8016
8291
7974
8305
7986
8272
8040
8211
8120
8132
8171
8072
8208
8048
8188
8079
8150
8138
8094
8194
8048
8227
8048
8217
8075
8166
8154
8091
8229
8020
8287
7991
8309
8003
8279
8050
8209
8103
8129
8160
8090
8181
8089
8168
8135
8105
8198
8041
8261
7994
8280
7993
8246
8029
8191
8112
8106
8183
8044
8237
8020
8267
8041
8223
8081
8153
8140
8092
8176
8069
8191
8088
8149
8155
8086
8225
8025
8295
7988
8313
7983
8290
8027
8227
8100
8148
8165
8095
8200
8067
8188
8089
8146
8139
8090
8203
8039
8227
8023
8220
8055
8175
8128
8108
8199
8028
8259
7995
8288
7999
8275
8044
8204
8104
8147
8167
8097
8174
8085
8151
8129
8106
8198
8046
8268
8009
8296
8002
8278
8027
8214
8097
8144
8166
8067
8228
8039
8250
8048
8219
8100
8144
8139
8089
8186
8058
8193
8066
8161
8126
8099
8198
8023
8264
7978
8296
7971
8287
8002
8221
8076
8162
8153
8096
8194
8080
8184
8095
8155
8154
8095
8213
8042
8255
8027
8254
8055
8214
8125
8148
8198
8066
8247
8010
8288
8005
8270
8030
8205
8098
8139
8147
8088
8171
8084
8160
8115
8108
8188
8042
8268
8000
8294
7978
8281
8004
8231
8067
8156
8140
8077
8207
8049
8224
8054
8207
8096
8149
8154
8093
8193
8064
8217
8070
8189
8132
8129
8193
8049
8272
8006
8314
7979
8306
8013
8246
8067
8172
8133
8110
8186
8086
8179
8089
8140
8142
8086
8213
8030
8263
8001
8259
8023
8219
8088
8151
8161
8063
8221
8016
8267
8009
8251
8040
8209
8094
8136
8155
8100
8179
8092
8183
8115
8134
8184
8058
8254
8002
8309
7983
8309
8000
8257
8059
8188
8141
8117
8192
8059
8214
8062
8202
8092
8140
8146
8076
8201
8039
8220
8040
8195
8102
8141
8170
8059
8240
8000
8297
7981
8296
8004
8253
8055
8186
8119
8115
8173
8085
8178
8099
8148
8152
8085
8217
8026
8271
7999
8286
8008
8246
8064
8182
8159
8110
8221
8050
8258
8027
8257
8048
8208
8104
8138
8147
8083
8181
8069
8181
8103
8133
8164
8063
8236
7999
8296
7972
8303
7988
8266
8037
8200
8128
8135
8184
8085
8209
8073
8181
8099
8127
8145
8063
8208
8038
8245
8044
8227
8093
8176
8158
8089
8227
8021
8277
7988
8289
8007
8264
8056
8191
8126
8130
8177
8092
8184
8096
8155
8150
8083
8209
8029
8267
7984
8292
7995
8255
8041
8197
8128
8124
8192
8049
8229
8029
8248
8051
8200
8100
8132
8160
8089
8206
8070
8200
8097
8160
8165
8094
8242
8023
8304
7982
8320
7990
8285
8036
8222
8114
8154
8169
8086
8195
8075
8172
8101
8123
8171
8073
8216
8022
8249
8016
8230
8060
8178
8126
8107
8211
8035
8266
8001
8280
8010
8258
8058
8195
8116
8124
8164
8096
8179
8095
8158
8152
8105
8218
8038
8289
7997
8306
7997
8283
8033
8217
8110
8143
8177
8079
8226
8045
8230
8058
8193
8106
8123
8158
8075
8209
8056
8203
8071
8163
8140
8097
8213
8022
8270
7983
8305
7979
8291
8023
8220
8086
8156
8155
8092
8188
8086
8173
8108
8134
8175
8074
8225
8024
8272
8015
8254
8044
8214
8120
8136
8197
8051
8251
8017
8281
8018
8257
8060
8201
8120
8132
8165
8086
8190
8087
8158
8134
8086
8197
8028
8264
7975
8298
7971
8281
8007
8222
8072
8152
8156
8087
8204
8054
8215
8069
8197
8116
8118
8162
8064
8227
8050
8231
8079
8199
8139
8127
8207
8040
8271
7995
8317
7998
8299
8031
8236
8089
8168
8160
8111
8186
8095
8173
8118
8130
8174
8071
8238
8016
8273
8003
8261
8028
8214
8093
8147
8168
8061
8233
8023
8269
8025
8252
8059
8191
8119
8122
8166
8085
8202
8087
8178
8139
8122
8196
8032
8263
7989
8308
7979
8303
8009
8240
8071
8181
8145
8116
8199
8067
8213
8075
8164
8113
8118
8182
8063
8240
8039
8236
8054
8197
8116
8137
8188
8058
8250
7997
8292
7987
8282
8007
8222
8074
8159
8129
8105
8170
8089
8171
8111
8127
8178
8073
8241
8024
8290
8000
8294
8020
8248
8087
8169
8162
8092
8222
8045
8252
8032
8250
8069
8187
8130
8125
8182
8081
8207
8083
8185
8131
8134
8191
8048
8255
7992
8303
7973
8294
7993
8248
8055
8187
8139
8128
8194
8082
8210
8088
8168
8123
8111
8186
8054
8244
8025
8249
8052
8226
8108
8158
8176
8081
8236
8016
8283
7990
8287
8020
8233
8079
8170
8135
8109
8169
8090
8168
8106
8124
8169
8068
8240
8013
8288
7981
8292
7998
8248
8053
8181
8141
8114
8204
8053
8231
8042
8232
8076
8185
8132
8113
8183
8073
8215
8072
8199
8113
8143
8185
8072
8257
8011
8314
7984
8313
7995
8255
8051
8200
8127
8139
8186
8084
8192
8083
8157
8125
8105
8193
8050
8252
8017
8267
8025
8229
8064
8153
8149
8091
8218
8019
8261
7995
8275
8025
8231
8080
8170
8139
8112
8177
8093
8189
8110
8145
8168
8073
8237
8019
8296
7988
8309
7994
8265
8046
8195
8125
8129
8192
8074
8225
8059
8226
8081
8161
8127
8105
8178
8063
8223
8063
8210
8106
8161
8170
8091
8237
8013
8290
7981
8303
7987
8258
8037
8209
8107
8140
8168
8089
8193
8098
8161
8126
8102
8196
8052
8266
8022
8288
8018
8256
8054
8191
8130
8116
8208
8045
8256
8017
8269
8030
8226
8079
8168
8138
8102
8170
8073
8184
8095
8145
8164
8079
8224
8021
8292
7979
8314
7985
8277
8036
8216
8107
8141
8170
8080
8205
8065
8205
8084
8159
8141
8099
8212
8064
8241
8046
8226
8077
8179
8156
8113
8230
8035
8279
7991
8304
7998
8282
8045
8219
8110
8146
8164
8100
8182
8092
8161
8130
8106
8195
8049
8268
8011
8295
8005
8268
8033
8206
8117
8144
8194
8061
8245
8037
8259
8034
8232
8079
8153
8140
8097
8180
8073
8201
8104
8180
8158
8103
8223
8031
8289
7985
8316
7983
8302
8026
8231
8100
8162
8164
8101
8205
8076
8205
8097
8158
8143
8091
8200
8041
8242
8028
8224
8052
8187
8126
8111
8194
8022
8251
7994
8294
8002
8275
8042
8208
8102
8146
8165
8101
8178
8089
8166
8135
8112
8198
8050
8274
8016
8315
8002
8281
8028
8235
8102
8155
8167
8079
8228
8036
8254
8049
8215
8086
8149
8151
8106
8194
8072
8211
8078
8174
8131
8110
8207
8031
8269
7979
8307
7985
8307
8020
8246
8087
8180
8150
8104
8189
8073
8176
8092
8152
8148
8085
8210
8039
8261
8020
8252
8045
8209
8114
8147
8194
8066
8254
8013
8291
8012
8273
8041
8208
8100
8139
8150
8099
8176
8091
8168
8121
8109
8192
8051
8252
7998
8301
7981
8296
8017
8246
8084
8176
8156
8101
8210
8050
8225
8054
8207
8094
8147
8150
8100
8221
8066
8221
8076
8196
8136
8139
8205
8051
8271
8006
8311
7985
8304
8013
8236
8066
8180
8137
8108
8183
8084
8181
8100
8149
8146
8085
8224
8041
8277
8014
8263
8032
8222
8096
8158
8169
8081
8232
8024
8279
8006
8258
8040
8213
8110
8148
8154
8099
8181
8087
8179
8122
8136
8191
8061
8264
8007
8309
7988
8315
8002
8257
8061
8182
8139
8105
8190
8061
8214
8058
8183
8090
8138
8143
8083
8223
8047
8229
8058
8206
8119
8146
8177
8061
8246
7998
8298
7984
8303
8006
8247
8066
8182
8139
8125
8178
8092
8178
8107
8149
8156
8086
8218
8034
8290
8011
8295
8031
8251
8087
8179
8156
8105
8220
8040
8258
8028
8265
8048
8206
8103
8140
8159
8083
8177
8075
8187
8106
8140
8180
8063
8244
8004
8300
7974
8306
7991
8267
8047
8195
8124
8130
8187
8084
8213
8077
8188
8115
8143
8185
8090
8234
8047
8243
8041
8220
8091
8157
8162
8085
8235
8017
8290
7989
8292
8004
8244
8050
8184
8123
8120
8173
8094
8177
8106
8149
8158
8089
8224
8034
8288
8000
8300
8005
8265
8060
8202
8143
8128
8207
8063
8256
8037
8254
8058
8202
8102
8127
8157
8084
8201
8074
8196
8099
8162
8166
8071
8237
8017
8299
7983
8309
7992
8285
8034
8212
8113
8145
8174
8087
8199
8081
8164
8100
8122
8159
8073
8238
8038
8266
8032
8244
8071
8177
8145
8106
8220
8035
8271
7994
8282
8002
8252
8042
8183
8112
8131
8164
8099
8193
8099
8165
8158
8093
8228
8044
8287
8000
8316
8002
8273
8038
8212
8110
8140
8185
8073
8234
8052
8240
8074
8197
8110
8133
8164
8086
8217
8067
8213
8090
8169
8154
8091
8219
8015
8285
7986
8312
7985
8284
8029
8217
8098
8153
8160
8089
8186
8079
8177
8114
8127
8179
8078
8249
8038
8290
8036
8269
8067
8204
8129
8126
8202
8053
8256
8013
8275
8012
8250
8057
8185
8115
8122
8163
8084
8185
8088
8159
8143
8093
8210
8035
8280
7989
8307
7983
8295
8017
8228
8099
8160
8166
8088
8222
8057
8224
8071
8196
8116
8127
8170
8079
8234
8060
8233
8083
8195
8155
8128
8219
8045
8280
8000
8316
7995
8299
8030
8231
8088
8171
8152
8098
8187
8084
8171
8121
8128
8184
8063
8234
8020
8292
8013
8278
8038
8219
8101
8147
8180
8066
8245
8034
8271
8019
8247
8061
8185
8122
8123
8170
8085
8198
8089
8179
8152
8127
8207
8047
8272
8002
8317
7980
8299
8008
8245
8073
8172
8153
8100
8200
8072
8222
8078
8175
8121
8124
8184
8059
8237
8042
8232
8052
8198
8115
8130
8194
8049
8258
8005
8300
7996
8290
8023
8232
8085
8165
8151
8107
8186
8093
8182
8117
8131
8185
8075
8258
8025
8301
8009
8293
8026
8244
8092
8173
8163
8100
8225
8042
8249
8030
8236
8065
8182
8126
8112
8168
8078
8201
8082
8185
8129
8129
8197
8049
8260
7998
8304
7977
8305
7999
8248
8055
8184
8140
8124
8191
8082
8202
8089
8175
8139
8123
8192
8059
8250
8028
8244
8039
8212
8095
8153
8177
8081
8245
8020
8292
8002
8283
8022
8232
8076
8175
8133
8111
8175
8093
8187
8113
8145
8185
8077
8240
8014
8296
7989
8294
8002
8250
8059
8189
8143
8115
8207
8055
8233
8045
8234
8075
8188
8136
8123
8204
8082
8218
8080
8210
8126
8149
8190
8074
8255
8015
8315
7985
8312
8003
8265
8047
8195
8119
8133
8175
8087
8198
8084
8166
8131
8116
8199
8057
8249
8015
8267
8020
8230
8073
8171
8153
8096
8225
8036
8286
8017
8283
8035
8234
8078
8166
8133
8110
8178
8093
8192
8116
8154
8174
8090
8250
8025
8294
7990
8316
7998
8273
8056
8213
8125
8137
8199
8071
8219
8055
8228
8084
8164
8131
8102
8195
8058
8221
8054
8214
8088
8161
8164
8084
8238
8025
8292
7982
8305
7993
8278
8046
8209
8113
8147
8176
8095
8192
8088
8174
8142
8116
8204
8066
8274
8021
8288
8018
8256
8060
8189
8133
8120
8208
8045
8254
8016
8266
8033
8242
8089
8182
8143
8110
8177
8079
8186
8091
8148
8157
8081
8224
8010
8285
7974
8315
7988
8274
8033
8217
8109
8145
8175
8087
8216
8071
8227
8086
8162
8138
8100
8202
8066
8251
8057
8231
8085
8184
8157
8111
8228
8037
8294
8000
8308
8002
8280
8038
8211
8104
8149
8163
8098
8172
8093
8161
8131
8106
8195
8047
8263
8004
8288
8001
8264
8035
8208
8121
8135
8195
8058
8240
8041
8264
8043
8241
8096
8173
8151
8111
8185
8082
8201
8097
8174
8161
8106
8227
8033
8295
7982
8319
7983
8298
8028
8235
8104
8159
8160
8097
8201
8076
8206
8094
8152
8145
8100
8207
8051
8254
8027
8234
8059
8191
8133
8125
8204
8040
8266
8006
8307
8008
8275
8039
8229
8112
8158
8169
8107
8185
8098
8180
8140
8118
8199
8054
8270
8008
8299
7996
8289
8024
8225
8099
8155
8179
8097
8238
8049
8258
8058
8226
8088
8143
8138
8085
8173
8063
8205
8077
8172
8137
8111
8207
8030
8276
7990
8315
7982
8298
8005
8244
8082
8174
8158
8105
8193
8081
8189
8104
8155
8154
8098
8220
8049
8269
8032
8259
8050
8217
8120
8144
8184
8058
8252
8018
8291
8012
8270
8035
8210
8100
8161
8173
8105
8182
8092
8170
8125
8117
8200
8058
8273
8004
8307
7989
8302
8017
8244
8086
8171
8162
8106
8211
8053
8230
8058
8224
8095
8154
8159
8100
8225
8072
8229
8076
8200
8142
8139
8204
8063
8268
7995
8304
7979
8305
8023
8257
8080
8188
8157
8127
8197
8092
8185
8098
8139
8145
8088
8223
8042
8269
8015
8262
8026
8219
8090
8154
8174
8084
8235
8029
8279
8011
8263
8044
8203
8102
8148
8161
8106
8205
8099
8193
8139
8133
8187
8066
8258
8004
8314
7989
8308
8009
8258
8062
8181
8142
8115
8197
8068
8219
8061
8203
8110
8145
8159
8085
8207
8045
8225
8050
8198
8108
8136
8183
8057
8252
8002
8304
7986
8303
8018
8253
8067
8190
8146
8126
8190
8107
8207
8119
8164
8177
8104
8230
8043
8286
8009
8287
8024
8240
8068
8169
8150
8099
8221
8030
8251
8017
8255
8046
8197
8097
8137
8163
8098
8202
8077
8190
8112
8134
8183
8064
8249
8007
8303
7987
8317
7992
8267
8053
8206
8130
8132
8191
8079
8213
8078
8185
8111
8139
8182
8082
8235
8053
8249
8059
8224
8097
8155
8173
8088
8245
8018
8290
7994
8297
8013
8250
8062
8187
8118
8120
8180
8087
8175
8104
8144
8158
8091
8226
8029
8278
8000
8295
8003
8258
8057
8189
8140
8122
8209
8058
8244
8035
8258
8063
8208
8112
8142
8171
8104
8218
8090
8217
8130
8168
8183
8077
8246
8018
8298
7977
8311
7989
8268
8044
8211
8117
8140
8177
8083
8196
8084
8199
8122
8135
8183
8082
8249
8042
8263
8031
8225
8086
8174
8154
8098
8231
8032
8277
8004
8298
8017
8259
8062
8191
8127
8130
8168
8099
8194
8117
8165
8171
8102
8228
8034
8288
7995
8309
8000
8273
8047
8211
8123
8138
8189
8065
8228
8045
8241
8066
8197
8113
8125
8165
8089
8217
8066
8205
8089
8160
8162
8095
8238
8021
8305
7987
8315
7988
8288
8037
8220
8120
8168
8182
8100
8197
8093
8176
8126
8138
8184
8073
8252
8031
8277
8025
8252
8069
8197
8141
8124
8211
8039
8255
8002
8278
8011
8249
8067
8187
8128
8128
8171
8096
8193
8103
8165
8152
8096
8226
8025
8283
7985
8303
7986
8277
8032
8224
8108
8138
8169
8073
8215
8054
8221
8069
8174
8124
8140
8194
8086
8245
8071
8234
8094
8187
8159
8109
8232
8040
8295
7993
8314
7993
8292
8033
8224
8094
8151
8161
8095
8189
8094
8171
8121
8123
8180
8066
8246
8023
8282
8007
8256
8046
8212
8128
8145
8199
8062
8255
8022
8276
8029
8255
8073
8191
8131
8116
8176
8098
8200
8105
8171
8151
8118
8222
8039
8287
7997
8319
7987
8298
8019
8231
8092
8161
8161
8079
8198
8055
8205
8073
8166
8120
8115
8192
8065
8243
8056
8232
8069
8189
8135
8122
8213
8043
8275
7999
8313
7990
8293
8028
8231
8098
8166
8156
8111
8197
8105
8187
8132
8134
8196
8077
8264
8026
8304
8013
8280
8035
8230
8109
8152
8175
8066
8226
8025
8262
8037
8241
8073
8176
8129
8121
8182
8082
8196
8089
8177
8142
8118
8215
8045
8274
7988
8312
7978
8303
8014
8247
8075
8180
8155
8118
8205
8080
8215
8099
8196
8147
8125
8209
8072
8255
8043
8253
8062
8206
8125
8142
8200
8065
8262
8017
8303
8006
8291
8032
8219
8079
8162
8139
8100
8167
8092
8178
8125
8126
8187
8062
8245
8010
8301
7989
8299
8026
8248
8101
8176
8165
8106
8226
8049
8251
8045
8231
8083
8185
8146
8124
8187
8083
8219
8084
8191
8136
8132
8194
8050
8268
7997
8313
7985
8311
8006
8250
8069
8189
8144
8121
8193
8074
8195
8084
8151
8124
8104
8201
8058
8262
8034
8262
8045
8219
8105
8149
8181
8085
8251
8020
8297
8009
8279
8044
8227
8087
8167
8143
8103
8183
8101
8186
8126
8141
8191
8067
8253
8019
8305
7993
8306
8012
8261
8071
8190
8152
8118
8212
8063
8238
8052
8229
8086
8159
8143
8110
8188
8074
8219
8070
8197
8109
8135
8182
8059
8260
8004
8308
7980
8308
8008
8257
8063
8203
8141
8137
8186
8105
8210
8106
8167
8151
8113
8215
8058
8274
8023
8279
8029
8241
8092
8175
8170
8091
8234
8027
8265
8009
8268
8029
8219
8088
8167
8143
8106
8178
8089
8190
8114
8140
8182
8067
8243
8012
8298
7986
8306
8002
8269
8059
8199
8131
8129
8199
8074
8234
8060
8218
8093
8158
8155
8112
8227
8071
8236
8061
8212
8105
8158
8177
8074
8246
8021
8306
7997
8307
8007
8262
8059
8195
8113
8118
8175
8085
8184
8100
8153
8143
8098
8208
8047
8277
8012
8282
8021
8256
8068
8190
8147
8116
8222
8050
8261
8020
8266
8043
8225
8102
8170
8161
8107
8191
8092
8196
8110
8157
8171
8078
8239
8014
8301
7986
8320
8000
8279
8046
8206
8105
8132
8175
8073
8203
8060
8204
8094
8153
8158
8094
8228
8057
8267
8060
8233
8084
8170
8154
8091
8229
8021
8293
7994
8308
8009
8279
8053
8211
8123
8152
8177
8103
8182
8109
8168
8166
8109
8223
8052
8287
8016
8303
8013
8261
8045
8199
8122
8128
8204
8058
8249
8030
8254
8044
8213
8096
8144
8145
8092
8189
8075
8204
8104
8165
8169
8088
8231
8021
8303
7990
8320
7996
8295
8040
8227
8115
8155
8173
8095
8203
8087
8219
8116
8155
8175
8096
8235
8050
8263
8040
8244
8075
8191
8144
8121
8222
8039
8279
8002
8292
8000
8263
8042
8197
8115
8134
8172
8092
8179
8101
8168
8149
8097
8208
8036
8274
8001
8308
7995
8277
8031
8225
8119
8149
8188
8079
8240
8054
8254
8063
8211
8102
8141
8165
8096
8227
8081
8225
8102
8180
8157
8109
8230
8034
8292
7987
8307
7980
8297
8028
8230
8089
8162
8154
8097
8193
8079
8179
8108
8147
8168
8074
8224
8031
8266
8020
8253
8057
8205
8128
8135
8206
8054
8261
8007
8286
8020
8268
8050
8201
8124
8149
8182
8103
8202
8108
8180
8159
8115
8216
8051
8288
8007
8316
7993
8292
8030
8240
8100
8164
8164
8104
8213
8051
8229
8065
8199
8109
8133
8165
8092
8228
8065
8224
8079
8189
8144
8122
8207
8040
8269
7991
8306
7981
8295
8023
8241
8085
8173
8163
8109
8194
8098
8180
8116
8144
8175
8080
8249
8030
8275
8012
8269
8056
8235
8127
8170
8202
8071
8246
8015
8267
8005
8246
8046
8187
8110
8129
8181
8095
8204
8099
8186
8147
8133
8208
8046
8261
7996
8314
7985
8305
8012
8247
8075
8177
8160
8111
8214
8065
8217
8076
8184
8118
8143
8192
8090
8246
8063
8245
8074
8204
8132
8138
8207
8054
8272
8014
8316
7997
8299
8025
8237
8075
8170
8142
8110
8183
8084
8172
8108
8132
8169
8074
8234
8026
8282
7999
8285
8030
8237
8091
8178
8176
8096
8234
8044
8272
8033
8259
8073
8207
8134
8145
8188
8100
8207
8095
8188
8127
8125
8181
8039
8259
8000
8310
7973
8305
8003
8263
8067
8195
8147
8131
8205
8085
8221
8091
8180
8117
8124
8188
8076
8244
8043
8242
8052
8216
8113
8152
8185
8069
8253
8019
8302
8001
8299
8030
8245
8078
8185
8148
8124
8199
8106
8194
8120
8150
8183
8086
8248
8031
8297
7997
8300
8019
8260
8068
8184
8148
8113
8218
8049
8251
8048
8250
8068
8185
8123
8119
8163
8075
8208
8074
8191
8116
8138
8186
8059
8253
8005
8309
7981
8310
7997
8260
8061
8201
8136
8146
8195
8091
8208
8093
8190
8133
8117
8194
8062
8242
8033
8266
8039
8235
8109
8176
8175
8099
8244
8024
8293
8009
8292
8031
8240
8087
8186
8134
8114
8168
8092
8163
8102
8147
8177
8084
8238
8021
8294
8000
8308
8002
8263
8062
8207
8144
8125
8210
8063
8240
8060
8249
8089
8196
8143
8131
8200
8084
8219
8073
8209
8113
8149
8174
8074
8247
8015
8308
7985
8307
7998
8267
8049
8206
8121
8138
8175
8092
8198
8098
8171
8134
8118
8202
8065
8263
8027
8279
8028
8249
8073
8181
8155
8108
8232
8042
8274
8022
8282
8033
8237
8081
8181
8144
8120
8199
8102
8197
8116
8159
8164
8083
8227
8016
8295
7994
8319
8006
8284
8047
8212
8118
8133
8185
8067
8215
8048
8221
8081
8170
8134
8109
8197
8071
8231
8064
8221
8091
8168
8159
8099
8235
8023
8303
7994
8312
7992
8278
8046
8219
8131
8155
8183
8112
8199
8108
8187
8142
8124
8213
8065
8271
8024
8291
8020
8264
8064
8204
8140
8128
8212
8052
8251
8017
8266
8027
8220
8082
8180
8143
8111
8186
8100
8205
8096
8161
8160
8088
8223
8021
8289
7984
8315
7987
8291
8031
8222
8108
8161
8186
8099
8222
8077
8231
8097
8170
8144
8111
8211
8067
8252
8058
8232
8083
8187
8152
8112
8221
8036
8273
7990
8303
8000
8276
8037
8210
8099
8152
8169
8097
8185
8106
8180
8137
8121
8205
8055
8269
8017
8290
7999
8273
8041
8216
8120
8143
8199
8074
8255
8040
8269
8046
8239
8087
8183
8152
8121
8206
8096
8216
8111
8181
8159
8111
8229
8028
8288
7985
8322
7996
8303
8028
8230
8081
8156
8154
8080
8196
8075
8198
8095
8160
8144
8099
8212
8052
8249
8039
8246
8067
8200
8141
8132
8215
8050
8273
8004
8294
7997
8275
8040
8215
8100
8160
8165
8105
8203
8103
8176
8138
8113
8200
8058
8268
8009
8307
8002
8295
8032
8233
8095
8148
8167
8080
8231
8050
8258
8054
8217
8093
8157
8142
8094
8191
8080
8215
8080
8184
8142
8120
8216
8032
8278
8000
8330
7995
8310
8031
8253
8093
8184
8170
8115
8202
8090
8205
8112
8165
8153
8101
8226
8051
8278
8036
8263
8052
8209
8118
8136
8187
8051
8247
8008
8285
7997
8275
8044
8218
8110
8163
8172
8106
8189
8099
8177
8143
8135
8200
8053
8256
8000
8304
7987
8304
8017
8242
8085
8176
8164
8106
8222
8063
8256
8068
8236
8115
8178
8176
8108
8228
8084
8237
8084
8203
8140
8136
8211
8057
8274
7996
8303
7985
8298
8012
8248
8073
8175
8148
8112
8181
8091
8190
8105
8150
8170
8093
8224
8039
8270
8024
8282
8042
8238
8108
8163
8187
8087
8242
8025
8282
8016
8272
8046
8209
8106
8146
8165
8102
8197
8103
8190
8142
8137
8201
8062
8266
8016
8316
7985
8304
8002
8253
8069
8176
8142
8110
8199
8059
8218
8064
8204
8106
8148
8162
8090
8228
8061
8239
8073
8211
8135
8157
8200
8069
8270
8016
8305
7997
8309
8021
8262
8082
8195
8150
8124
8179
8093
8173
8108
8147
8163
8087
8228
8033
8297
8014
8296
8036
8247
8093
8183
8171
8096
8213
8025
8252
8019
8262
8055
8208
8107
8141
8164
8097
8204
8091
8189
8134
8146
8196
8066
8256
8008
8314
7980
8307
8004
8265
8056
8196
8137
8129
8194
8079
8225
8088
8211
8130
8152
8186
8091
8246
8058
8249
8055
8216
8105
8154
8173
8083
8247
8016
8301
7991
8292
8015
8248
8061
8177
8125
8117
8174
8088
8193
8111
8159
8177
8095
8232
8038
8290
8006
8302
8014
8257
8067
8188
8148
8109
8216
8055
8256
8039
8258
8070
8214
8121
8145
8184
8102
8213
8081
8197
8127
8158
8194
8081
8261
8018
8307
7978
8312
7992
8262
8049
8204
8129
8140
8186
8086
8212
8084
8184
8123
8135
8185
8069
8244
8043
8264
8039
8231
8093
8170
8161
8102
8239
8030
8294
8000
8294
8016
8250
8077
8192
8132
8131
8183
8099
8203
8115
8167
8178
8100
8236
8035
8289
7994
8306
8012
8271
8054
8209
8126
8135
8204
8057
8236
8040
8240
8068
8192
8112
8133
8189
8088
8221
8080
8218
8124
8170
8180
8081
8243
8012
8300
7978
8306
7994
8288
8048
8223
8126
8150
8179
8095
8201
8089
8178
8127
8138
8198
8077
8254
8037
8269
8030
8249
8074
8188
8148
8112
8222
8039
8270
8016
8287
8022
8258
8065
8182
8123
8116
8172
8081
8170
8100
8162
8163
8099
8235
8036
8288
7993
8308
7990
8280
8043
8220
8119
8145
8192
8080
8236
8065
8249
8086
8196
8138
8135
8201
8085
8243
8077
8222
8096
8179
8158
8097
8231
8023
8291
7989
8308
7991
8285
8030
8215
8098
8155
8177
8099
8197
8093
8175
8126
8119
8187
8068
8254
8029
8280
8014
8258
8059
8203
8140
8131
8208
8062
8265
8030
8285
8034
8249
8070
8186
8137
8132
8195
8106
8204
8103
8168
8161
8100
8223
8028
8289
7997
8317
7988
8294
8031
8227
8100
8151
8170
8084
8216
8063
8221
8082
8174
8135
8124
8199
8071
8245
8055
8231
8081
8190
8161
8112
8221
8040
8283
7996
8314
7998
8293
8046
8231
8102
8166
8172
8110
8203
8108
8190
8134
8131
8202
8065
8258
8023
8295
8006
8275
8044
8218
8115
8145
8195
8078
8257
8039
8268
8032
8236
8071
8174
8128
8110
8170
8079
8195
8097
8175
8155
8124
8222
8041
8293
7995
8323
7986
8310
8026
8237
8084
8171
8163
8104
8214
8078
8219
8096
8172
8144
8127
8217
8075
8263
8047
8234
8061
8199
8137
8128
8200
8049
8267
7998
8298
7989
8277
8022
8220
8089
8159
8162
8114
8193
8102
8181
8122
8124
8190
8064
8270
8025
8308
8008
8288
8026
8225
8094
8165
8181
8096
8238
8052
8265
8053
8246
8099
8188
8150
8117
8200
8078
8212
8094
8189
8147
8135
8216
8048
8275
7994
8314
7978
8304
8016
8245
8073
8176
8155
8111
8190
8077
8196
8096
8181
8154
8112
8216
8058
8264
8042
8259
8059
8218
8120
8151
8196
8070
8260
8019
8301
8013
8292
8048
8240
8110
8173
8173
8123
8208
8105
8194
8132
8140
8188
8064
8268
8009
8304
7994
8296
8012
8238
8080
8168
8149
8099
8211
8046
8236
8049
8227
8091
8165
8143
8108
8202
8068
8222
8083
8189
8130
8137
8200
8056
8265
8000
8308
7983
8308
8013
8258
8072
8191
8143
8130
8197
8096
8201
8109
8176
8168
8111
8223
8054
8272
8023
8265
8041
8237
8101
8167
8183
8093
8237
8024
8281
8010
8279
8048
8231
8101
8167
8170
8115
8190
8097
8187
8121
8135
8188
8071
8259
8008
8308
7988
8306
8008
8259
8064
8183
8139
8121
8210
8073
8233
8073
8227
8106
8162
8155
8104
8206
8070
8240
8080
8212
8120
8160
8197
8076
8265
8014
8302
7978
8297
7999
8254
8062
8195
8146
8140
8188
8092
8191
8101
8153
8143
8094
8209
8028
8262
8003
8283
8028
8245
8088
8183
8165
8106
8238
8046
8270
8026
8272
8048
8230
8110
8174
8171
8111
8210
8095
8200
8123
8152
8189
8080
8261
8023
8317
7986
8307
7990
8262
8040
8191
8122
8131
8185
8075
8223
8078
8222
8113
8163
8176
8103
8240
8060
8248
8062
8219
8105
8172
8180
8088
8246
8024
8307
7999
8306
8018
8277
8071
8202
8139
8130
8175
8088
8179
8112
8165
8163
8106
8225
8038
8284
8010
8301
8014
8258
8059
8191
8134
8119
8213
8052
8254
8033
8258
8052
8218
8102
8143
8155
8095
8200
8076
8194
8109
8159
8176
8088
8248
8016
8302
7989
8324
7994
8277
8044
8208
8130
8154
8192
8092
8229
8086
8206
8121
8154
8181
8092
8235
8051
8268
8049
8237
8095
8178
8156
8109
8238
8032
8297
7996
8298
8007
8257
8049
8192
8113
8124
8175
8095
8179
8109
8168
8156
8093
8222
8035
8279
7999
8294
8000
8262
8053
8207
8135
8130
8205
8068
8260
8049
8261
8069
8215
8110
8139
8168
8098
8214
8079
8208
8103
8165
8171
8086
8240
8019
8298
7979
8319
7987
8290
8037
8219
8111
8152
8174
8095
8207
8088
8197
8112
8141
8183
8080
8242
8042
8268
8035
8245
8070
8192
8150
8121
8224
8035
8276
8012
8298
8027
8273
8072
8214
8140
8143
8194
8108
8199
8110
8169
8163
8101
8221
8040
8287
8000
8309
8000
8274
8038
8213
8114
8150
8195
8075
8235
8058
8255
8073
8196
8113
8127
8167
8084
8218
8074
8212
8093
8175
8162
8109
8236
8036
8300
7990
8324
7994
8292
8039
8237
8120
8174
8187
8108
8202
8092
8180
8118
8138
8192
8084
8251
8025
8274
8022
8263
8056
8202
8134
8124
8199
8046
8249
8009
8283
8020
8259
8062
8194
8122
8129
8188
8100
8203
8103
8168
8156
8102
8215
8037
8284
7992
8311
7987
8301
8034
8236
8107
8166
8181
8096
8225
8078
8253
8102
8218
8136
8141
8191
8083
8234
8056
8227
8075
8183
8141
8120
8219
8043
8276
7987
8307
7991
8294
8029
8239
8095
8167
8162
8108
8197
8101
8193
8129
8141
8195
8076
8263
8044
8293
8016
8267
8038
8215
8117
8140
8186
8067
8253
8039
8290
8042
8272
8079
8195
8132
8130
8188
8092
8198
8098
8181
8153
8122
8222
8048
8287
7997
8315
7982
8301
8006
8241
8089
8171
8157
8095
8208
8071
8222
8088
8193
8135
8126
8197
8078
8241
8047
8235
8070
8207
8144
8139
8208
8065
8270
8001
8307
8004
8300
8037
8235
8094
8178
8168
8119
8195
8102
8192
8133
8144
8188
8077
8263
8017
8289
7998
8284
8024
8229
8096
8159
8167
8088
8227
8033
8266
8036
8242
8075
8187
8124
8129
8179
8086
8216
8084
8193
8144
8130
8209
8061
8275
8000
8323
7988
8316
8018
8257
8074
8194
8158
8138
8215
8095
8219
8101
8190
8143
8124
8213
8072
8255
8038
8249
8052
8212
8112
8153
8197
8064
8251
8011
8298
8001
8296
8042
8239
8085
8160
8133
8091
8159
8082
8176
8110
8125
8177
8060
8244
8020
8299
7999
8304
8023
8265
8096
8188
8166
8114
8223
8062
8259
8057
8252
8094
8194
8144
8127
8207
8087
8223
8083
8197
8133
8139
8201
8065
8265
8002
8309
7982
8313
8009
8263
8064
8194
8137
8130
8184
8089
8199
8091
8157
8128
8104
8204
8061
8263
8025
8276
8037
8231
8105
8162
8174
8097
8256
8037
8300
8014
8286
8036
8240
8098
8185
8160
8123
8198
8097
8193
8128
8148
8183
8080
8250
8017
8305
7989
8299
8000
8258
8054
8181
8138
8123
8201
8068
8240
8061
8233
8093
8181
8147
8114
8209
8075
8234
8078
8209
8125
8158
8188
8073
8259
8016
8302
7989
8313
8007
8281
8065
8211
8144
8146
8193
8100
8201
8104
8185
8143
8111
8205
8054
8270
8021
8278
8030
8247
8085
8190
8156
8105
8221
8033
8269
8015
8279
8037
8230
8093
8170
8151
8119
8189
8088
8192
8107
8149
8182
8076
8245
8022
8300
7989
8314
7999
8270
8043
8202
8132
8135
8193
8081
8229
8078
8233
8095
8164
8155
8105
8210
8065
8238
8064
8228
8107
8169
8171
8091
8240
8018
8300
7985
8306
8004
8275
8049
8204
8119
8143
8174
8100
8181
8104
8174
8140
8101
8208
8046
8279
8020
8298
8021
8263
8070
8207
8153
8126
8218
8050
8262
8038
8280
8056
8243
8112
8183
8159
8113
8186
8086
8201
8109
8164
8181
8091
8239
8023
8295
7979
8305
7985
8273
8031
8215
8106
8146
8182
8085
8222
8080
8219
8109
8162
8160
8103
8237
8067
8266
8051
8233
8081
8183
8163
8113
8233
8036
8298
8012
8320
8018
8289
8058
8219
8119
8163
8197
8123
8223
8121
8189
8169
8121
8217
8048
8277
7996
8290
7996
8264
8038
8208
8112
8136
8193
8066
8243
8039
8254
8048
8219
8094
8154
8155
8096
8203
8080
8211
8094
8173
8164
8109
8239
8038
8304
7990
8317
7988
8296
8040
8240
8116
8176
8175
8104
8208
8084
8207
8119
8159
8172
8102
8244
8056
8268
8021
8226
8043
8180
8121
8107
8201
8039
8271
8003
8297
8009
8269
8044
8204
8104
8135
8174
8097
8185
8101
8168
8149
8110
8212
8048
8280
8005
8312
7997
8294
8035
8235
8113
8163
8176
8086
8236
8054
8250
8061
8211
8105
8151
8167
8100
8232
8080
8230
8095
8187
8149
8119
8216
8035
8273
7994
8315
7990
8306
8025
8243
8093
8173
8165
8118
8209
8093
8203
8117
8149
8172
8094
8235
8042
8280
8037
8275
8067
8226
8127
8141
8195
8068
8261
8026
8291
8021
8270
8065
8219
8122
8151
8184
8110
8208
8112
8187
8150
8139
8223
8054
8262
7995
8302
7979
8294
8007
8230
8074
8168
8162
8106
8207
8054
8228
8068
8208
8114
8144
8167
8088
8226
8060
8224
8076
8194
8132
8129
8203
8050
8267
7998
8312
7998
8302
8022
8256
8091
8190
8158
8115
8198
8101
8203
8120
8163
8180
8086
8237
8033
8276
8009
8270
8034
8230
8105
8163
8176
8086
8243
8033
8280
8036
8271
8071
8218
8120
8142
8168
8100
8206
8102
8197
8148
8138
8209
8069
8290
8019
8329
8005
8333
8024
8274
8079
8199
8157
8125
8200
8075
8223
8079
8211
8128
8149
8193
8093
8236
8050
8236
8057
8206
8116
8146
8184
8059
8251
7998
8294
7986
8304
8015
8250
8076
8186
8148
8124
8190
8104
8197
8119
8159
8175
8088
8237
8038
8296
8011
8294
8020
8246
8076
8176
8153
8118
8246
8081
8289
8043
8256
8053
8184
8090
8117
8157
8070
8174
8061
8178
8108
8146
8199
8068
8262
8013
8319
7986
8318
7996
8255
8044
8190
8115
8123
8188
8097
8235
8104
8204
8130
8134
8176
8062
8229
8018
8234
8040
8234
8113
8180
8179
8101
8246
8025
8284
7986
8289
8018
8246
8075
8195
8147
8129
8189
8103
8204
8134
8184
8195
8113
8253
8052
8309
8012
8323
8040
8296
8093
8217
8147
8128
8203
8057
8252
8054
8251
8073
8201
8131
8144
8201
8102
8239
8089
8218
8114
8160
8170
8066
8239
8015
8312
7990
8316
7993
8273
8046
8219
8131
8158
8192
8106
8219
8107
8201
8136
8135
8198
8080
8250
8030
8269
8032
8242
8075
8185
8150
8101
8220
8033
8276
8001
8289
8020
8232
8069
8187
8137
8129
8177
8095
8188
8110
8166
8169
8100
8241
8033
8294
7987
8310
7999
8275
8049
8223
8130
8144
8198
8082
8232
8072
8272
8132
8252
8154
8133
8190
8071
8208
8049
8196
8085
8161
8154
8090
8223
8014
8290
7979
8305
7984
8280
8035
8214
8099
8145
8167
8097
8200
8113
8213
8158
8148
8207
8070
8249
8005
8251
7997
8257
8067
8221
8148
8138
8216
8045
8252
8008
8275
8013
8227
8063
8170
8125
8124
8203
8112
8223
8122
8175
8172
8102
8223
8026
8287
8000
8328
8024
8334
8066
8258
8127
8164
8179
8087
8210
8052
8207
8076
8184
8142
8133
8210
8081
8250
8066
8237
8091
8192
8151
8114
8222
8037
8276
7991
8306
8000
8296
8044
8245
8130
8173
8177
8107
8172
8092
8180
8130
8133
8212
8069
8262
8011
8286
8003
8266
8037
8216
8113
8146
8185
8066
8242
8036
8275
8036
8246
8083
8184
8140
8125
8185
8092
8208
8102
8179
8161
8121
8224
8036
8267
7979
8312
8010
8352
8078
8283
8112
8170
8141
8083
8177
8043
8175
8066
8149
8120
8107
8206
8059
8250
8038
8230
8051
8189
8125
8123
8204
8043
8260
7990
8292
7999
8298
8058
8255
8149
8219
8204
8145
8219
8138
8216
8157
8152
8209
8076
8279
8032
8308
8012
8305
8032
8240
8117
8190
8193
8094
8213
8012
8217
8021
8206
8062
8158
8141
8113
8191
8081
8206
8085
8182
8137
8124
8214
8054
8275
7997
8311
7977
8302
8011
8248
8072
8180
8155
8114
8193
8078
8205
8100
8162
8145
8125
8221
8069
8278
8047
8262
8055
8227
8125
8165
8205
8092
8274
8047
8345
8050
8298
8035
8221
8092
8138
8140
8125
8249
8145
8211
8132
8127
8182
8050
8224
7967
8259
7949
8257
8001
8253
8087
8180
8159
8104
8212
8060
8264
8077
8263
8130
8205
8181
8127
8209
8069
8210
8063
8201
8151
8177
8222
8067
8256
7986
8283
7946
8269
7985
8247
8071
8204
8151
8139
8210
8114
8204
8105
8190
8186
8131
8220
8058
8271
8035
8292
8047
8239
8106
8175
8179
8103
8248
8035
8292
8032
8292
8050
8234
8092
8159
8148
8112
8190
8108
8222
8169
8163
8187
8066
8252
8010
8286
7966
8284
7981
8247
8059
8213
8170
8159
8217
8085
8239
8068
8225
8098
8147
8130
8079
8181
8044
8194
8017
8159
8058
8120
8177
8120
8338
8078
8331
7972
8269
7961
8208
8016
8176
8120
8164
8207
8110
8199
8095
8148
8148
8101
8212
8042
8274
8030
8324
8052
8266
8088
8192
8156
8116
8229
8044
8280
8048
8297
8072
8256
8127
8202
8209
8147
8225
8076
8171
8083
8105
8133
8034
8233
8034
8364
8064
8397
8055
8316
8060
8200
8102
8109
8149
8052
8200
8063
8222
8134
8211
8249
8157
8282
8126
8318
8090
8215
8039
8111
8123
8078
8234
8004
8267
7976
8276
7984
8253
8055
8200
8114
8125
8168
8092
8182
8106
8154
8140
8105
8230
8061
8292
8025
8322
8031
8276
8068
8213
8154
8147
8231
8085
8292
8065
8284
8062
8222
8112
8173
8176
8101
8206
8082
8193
8100
8159
8172
8093
8234
8019
8296
7990
8325
7999
8301
8046
8228
8124
8162
8185
8104
8209
8077
8190
8105
8145
8177
8092
8240
8058
8252
8020
8218
8053
8186
8162
8140
8244
8063
8316
8029
8311
8000
8241
8007
8155
8091
8129
8181
8098
8184
8111
8183
8161
8121
8220
8045
8275
8003
8319
8024
8329
8087
8257
8133
8149
8185
8069
8236
8066
8283
8083
8240
8126
8164
8183
8105
8226
8064
8201
8097
8188
8162
8111
8233
8017
8283
7980
8301
7976
8289
8032
8237
8095
8172
8181
8138
8240
8115
8209
8123
8152
8172
8081
8237
8037
8267
8020
8237
8039
8185
8111
8119
8184
8036
8248
8011
8303
8038
8284
8076
8209
8112
8137
8154
8076
8163
8090
8162
8160
8155
8255
8092
8317
8020
8322
7989
8284
8002
8211
8093
8202
8225
8141
8245
8051
8205
8031
8152
8072
8103
8137
8066
8206
8057
8234
8077
8181
8137
8122
8229
8097
8343
8058
8364
8031
8338
8046
8238
8066
8145
8138
8115
8221
8119
8209
8132
8166
8185
8077
8232
8048
8298
8034
8273
8041
8213
8094
8144
8180
8082
8249
8028
8278
8014
8250
8054
8198
8118
8142
8185
8103
8209
8099
8174
8130
8128
8207
8059
8291
8018
8331
8012
8320
8020
8259
8072
8177
8148
8106
8209
8058
8218
8073
8198
8127
8136
8170
8081
8233
8058
8239
8059
8204
8129
8176
8265
8131
8304
8023
8329
8023
8326
8028
8222
8023
8109
8083
8065
8137
8065
8163
8121
8161
8183
8091
8244
8038
8304
8029
8321
8058
8272
8113
8194
8201
8124
8251
8065
8293
8059
8286
8082
8220
8148
8155
8200
8109
8211
8076
8181
8156
8171
8219
8059
8249
7983
8278
7947
8300
8006
8268
8068
8184
8110
8089
8172
8068
8196
8061
8156
8096
8111
8187
8082
8271
8081
8306
8093
8242
8121
8162
8184
8097
8266
8037
8324
8032
8309
8010
8225
8055
8164
8119
8112
8182
8082
8149
8085
8129
8186
8094
8234
8004
8273
7980
8291
8014
8268
8095
8210
8161
8134
8233
8077
8262
8068
8273
8089
8204
8135
8136
8173
8069
8191
8052
8193
8118
8153
8188
8096
8279
8038
8328
7995
8323
8002
8268
8048
8197
8131
8161
8221
8126
8261
8158
8264
8175
8107
8128
7988
8166
7993
8231
8021
8221
8100
8204
8194
8143
8299
8097
8336
8006
8241
7949
8168
8024
8174
8194
8190
8223
8091
8154
8066
8085
8103
8054
8238
8054
8330
8031
8350
8035
8273
8040
8198
8129
8156
8234
8100
8265
8070
8262
8116
8239
8159
8141
8187
8050
8187
8040
8196
8092
8164
8173
8093
8243
8034
8318
8003
8319
7996
8287
8061
8230
8121
8139
8149
8066
8156
8065
8150
8119
8118
8196
8071
8261
8035
8292
8040
8265
8072
8196
8142
8117
8217
8058
8297
8034
8284
8031
8247
8072
8189
8174
8152
8229
8134
8253
8157
8171
8145
8068
8204
8016
8305
8012
8332
8017
8305
8025
8189
8069
8146
8213
8152
8312
8123
8252
8088
8159
8108
8082
8149
8029
8212
8080
8298
8151
8221
8166
8086
8200
8008
8309
8040
8362
8039
8317
8067
8244
8144
8184
8189
8114
8205
8117
8203
8170
8187
8288
8126
8295
8027
8266
7986
8226
7992
8168
8073
8096
8166
8042
8220
8003
8252
8037
8248
8069
8149
8120
8101
8172
8081
8201
8103
8171
8162
8131
8260
8082
8328
8003
8318
7986
8291
8013
8220
8074
8159
8182
8128
8248
8111
8247
8106
8170
8128
8094
8203
8077
8259
8054
8251
8083
8198
8144
8129
8205
8032
8259
7996
8308
7997
8287
8035
8219
8093
8151
8160
8114
8202
8128
8202
8131
8103
8179
8039
8233
7991
8280
8000
8318
8107
8290
8130
8156
8210
8139
8285
8077
8277
8039
8186
8040
8115
8097
8079
8163
8063
8209
8104
8200
8169
8140
8241
8066
8304
7990
8302
7969
8292
8010
8253
8112
8202
8178
8143
8232
8109
8210
8092
8145
8120
8101
8210
8042
8234
8013
8262
8087
8251
8167
8168
8203
8060
8260
8028
8343
8060
8336
8068
8230
8124
8178
8170
8106
8181
8098
8182
8129
8136
8202
8081
8293
8030
8308
7983
8286
8017
8215
8041
8149
8153
8099
8212
8042
8232
8056
8261
8152
8247
8203
8109
8190
8076
8222
8058
8136
8081
8113
8194
8058
8277
8010
8335
8062
8439
8116
8282
7986
8021
7993
8041
8174
8086
8183
8082
8133
8133
8099
8202
8022
8236
8000
8247
8026
8215
8093
8138
8156
8064
8239
8029
8304
8035
8297
8058
8248
8131
8219
8222
8161
8257
8144
8236
8172
8178
8221
8087
8268
8021
8327
8009
8331
8029
8292
8131
8235
8170
8129
8210
8069
8238
8081
8254
8130
8170
8158
8115
8245
8084
8268
8109
8255
8161
8180
8207
8095
8269
8005
8277
7945
8252
7952
8219
8030
8177
8128
8139
8208
8117
8256
8165
8198
8159
8086
8187
7994
8223
7978
8253
8018
8243
8061
8170
8141
8057
8179
8007
8248
8018
8279
8082
8263
8127
8200
8223
8169
8277
8157
8224
8104
8104
8152
8051
8230
8025
8319
7997
8336
8005
8252
8008
8153
8074
8083
8145
8032
8181
8045
8184
8112
8185
8191
8122
8241
8070
8263
8073
8243
8135
8207
8215
8143
8265
8020
8272
7979
8294
7984
8257
8084
8229
8134
8092
8123
8067
8175
8128
8203
8208
8180
8323
8153
8375
8073
8320
8004
8208
7978
8126
8085
8093
8190
8041
8230
8007
8249
8053
8227
8123
8177
8186
8121
8231
8086
8219
8143
8172
8167
8060
8212
7994
8270
7970
8318
8006
8321
8093
8297
8202
8181
8183
8129
8297
8149
8229
8087
8134
8189
8108
8237
8036
8223
8002
8192
8045
8156
8114
8076
8209
8033
8304
8011
8308
8021
8271
8057
8210
8130
8162
8200
8123
8232
8140
8189
8174
8121
8240
8063
8301
8020
8318
8019
8306
8062
8220
8118
8128
8187
8075
8270
8101
8328
8122
8233
8084
8114
8152
8084
8183
8048
8156
8030
8087
8068
8002
8158
7992
8282
7977
8306
7978
8295
8038
8229
8094
8144
8162
8099
8201
8095
8215
8095
8127
8204
8189
8419
8257
8428
8105
8237
8005
8111
8037
8025
8134
7988
8234
8004
8299
8032
8274
8067
8214
8137
8175
8215
8138
8223
8111
8170
8152
8129
8244
8077
8335
8074
8378
8032
8311
8027
8214
8088
8156
8212
8152
8313
8142
8307
8075
8169
8065
8088
8135
8127
8315
8119
8251
8104
8209
8162
8099
8184
8002
8255
7970
8311
8007
8336
8070
8247
8083
8150
8130
8083
8157
8066
8155
8099
8127
8185
8103
8250
8033
8248
7970
8207
7999
8184
8106
8135
8192
8059
8259
8022
8280
8009
8246
8041
8147
8062
8079
8128
8100
8257
8172
8214
8141
8083
8170
8013
8247
7981
8315
8019
8367
8132
8380
8234
8317
8268
8151
8231
8076
8247
8080
8165
8071
8093
8144
8067
8233
8056
8235
8073
8189
8126
8112
8192
8048
8279
8007
8320
7992
8284
8004
8208
8056
8162
8161
8156
8274
8154
8235
8142
8148
8194
8076
8221
7992
8258
8000
8277
8066
8284
8164
8197
8178
8049
8193
7991
8231
8002
8229
8035
8183
8110
8124
8181
8113
8223
8114
8185
8157
8173
8252
8078
8230
7919
8216
7911
8266
8025
8274
8074
8170
8146
8161
8274
8122
8232
8090
8214
8160
8182
8244
8140
8324
8137
8328
8119
8237
8133
8145
8206
8107
8295
8050
8359
8044
8317
8036
8250
8102
8217
8196
8172
8218
8096
8151
8073
8102
8133
8028
8199
8028
8318
8042
8316
8026
8270
8133
8192
8121
8009
8124
7943
8169
7982
8194
8037
8182
8127
8137
8205
8098
8210
8064
8174
8121
8134
8206
8078
8272
8012
8318
7986
8352
8058
8298
8056
8160
8082
8085
8151
8039
8154
8050
8141
8117
8118
8196
8075
8260
8037
8258
8053
8232
8106
8168
8189
8094
8256
8033
8309
8019
8314
8046
8250
8088
8189
8161
8124
8186
8088
8186
8121
8158
8210
8123
8300
8079
8362
8051
8347
8047
8286
8092
8226
8176
8141
8208
8044
8227
8032
8232
8061
8168
8114
8106
8167
8072
8228
8086
8203
8103
8138
8173
8073
8274
8058
8359
8033
8379
8093
8356
8109
8207
8080
8076
8123
8055
8232
8164
8262
8175
8109
8164
8013
8233
8043
8316
8032
8167
7957
8070
8094
8080
8225
8045
8297
8017
8293
8036
8251
8076
8179
8141
8132
8260
8186
8277
8169
8185
8195
8080
8236
8060
8348
8045
8350
8004
8240
8004
8157
8061
8071
8143
8022
8162
7976
8120
7975
8067
8053
8086
8304
8331
8523
8270
8323
8125
8104
8067
8014
8211
8042
8344
8035
8351
8040
8322
8091
8248
8141
8164
8203
8129
8236
8119
8189
8135
8124
8240
8102
8304
8042
8274
7980
8208
8047
8213
8159
8140
8251
8105
8311
8083
8376
8140
8306
8094
8103
8007
7959
8013
7929
8059
8023
8125
8166
8098
8252
8040
8306
7997
8350
8071
8381
8154
8359
8246
8252
8268
8164
8258
8085
8244
8106
8187
8130
8066
8143
8005
8186
8019
8207
8069
8169
8139
8090
8216
8027
8312
8030
8343
8012
8273
8025
8185
8079
8120
8167
8133
8236
8125
8195
8153
8091
8154
7994
8202
7978
8281
8019
8263
8010
8175
8108
8146
8212
8110
8314
8096
8328
8105
8308
8167
8193
8129
8089
8159
8045
8175
8099
8177
8171
8118
8217
8010
8252
7959
8309
7995
8337
8089
8300
8152
8223
8220
8116
8201
8053
8187
8124
8170
8107
8034
8134
8002
8207
8041
8251
8064
8187
8120
8105
8204
8053
8321
8061
8326
7982
8223
7993
8188
8096
8184
8201
8133
8238
8139
8208
8179
8183
8268
8117
8322
8055
8340
8058
8390
8150
8356
8222
8243
8216
8105
8222
8021
8219
8025
8206
8090
8179
8182
8130
8221
8085
8219
8096
8199
8154
8113
8186
7990
8208
7920
8223
7891
8233
8008
8292
8136
8193
8124
8029
8101
8039
8177
8105
8184
8150
8077
8197
8059
8292
8060
8292
8104
8288
8190
8182
8175
7998
8167
7914
8166
7899
8169
7974
8208
8140
8218
8203
8110
8164
8062
8176
8174
8152
8220
8078
8258
7991
8300
8007
8327
8043
8281
8128
8235
8226
8185
8275
8122
8318
8122
8267
8120
8161
8139
8083
8177
8055
8216
8079
8195
8127
8155
8243
8113
8291
7991
8298
7989
8325
8049
8314
8144
8249
8196
8155
8204
8120
8229
8109
8129
8111
8039
8147
7995
8267
8049
8347
8151
8313
8082
8080
8052
7972
8153
8008
8312
8060
8295
8041
8191
8071
8121
8139
8113
8262
8177
8239
8149
8174
8255
8106
8230
7946
8241
7931
8309
8053
8338
8132
8230
8170
8155
8209
8073
8215
8041
8153
8035
8064
8075
8031
8157
8033
8249
8100
8269
8172
8168
8139
8016
8208
7988
8283
7980
8324
8046
8288
8091
8232
8158
8131
8184
8115
8239
8138
8186
8172
8093
8212
8028
8272
8025
8335
8072
8309
8152
8264
8212
8163
8262
8076
8307
8085
8306
8078
8225
8102
8138
8136
8079
8195
8090
8214
8145
8182
8227
8133
8279
8008
8268
7926
8260
7944
8235
8022
8193
8114
8125
8172
8077
8222
8105
8249
8133
8148
8166
8133
8327
8208
8400
8091
8168
7966
8043
8062
8013
8173
7972
8234
7945
8248
7982
8247
8056
8207
8175
8213
8261
8168
8254
8178
8183
8095
7989
8096
7947
8240
8007
8318
8018
8277
8050
8222
8196
8206
8268
8122
8307
8102
8336
8145
8280
8157
8207
8216
8110
8187
8045
8182
8096
8165
8194
8141
8284
8060
8338
8011
8347
8024
8318
8071
8242
8141
8179
8199
8109
8217
8084
8154
8054
8082
8123
8064
8238
8035
8252
8041
8265
8075
8175
8134
8096
8182
7999
8229
7958
8245
7980
8222
8027
8177
8110
8131
8181
8101
8202
8136
8222
8235
8177
8224
8019
8293
8040
8358
8003
8231
7971
8171
8100
8157
8199
8088
8242
8060
8254
8077
8208
8118
8138
8158
8091
8235
8092
8280
8205
8250
8160
8045
8137
7934
8225
7953
8300
8002
8322
8077
8310
8163
8183
8167
8136
8304
8244
8307
8133
8042
8031
7952
8130
7968
8251
8000
8227
8014
8179
8115
8116
8182
8045
8261
8048
8337
8083
8338
8159
8323
8272
8299
8303
8157
8237
8139
8220
8200
8156
8230
8053
8282
8014
8354
8047
8356
8027
8173
7999
8057
8072
8026
8174
8050
8231
8082
8202
8112
8134
8195
8095
8254
8093
8286
8151
8251
8174
8131
8209
8040
8268
7998
8321
7986
8277
8003
8199
8046
8130
8128
8110
8214
8133
8219
8149
8179
8212
8094
8253
8027
8278
7994
8261
8026
8211
8092
8138
8170
8067
8253
8080
8332
8045
8232
8024
8108
8033
8075
8144
8104
8270
8164
8196
8093
8051
8154
8014
8261
8013
8320
7946
8233
7969
8234
8088
8203
8175
8137
8214
8064
8196
8060
8175
8131
8148
8224
8107
8259
8062
8268
8129
8285
8199
8209
8241
8056
8244
7983
8307
8055
8388
8110
8326
8171
8245
8189
8124
8197
8122
8212
8117
8115
8149
8019
8176
7971
8266
7999
8291
8011
8231
8077
8155
8151
8089
8223
8052
8255
8026
8241
8071
8193
8127
8122
8175
8099
8229
8100
8203
8154
8164
8208
8074
8281
8031
8344
8017
8334
8032
8290
8089
8222
8178
8176
8233
8121
8255
8120
8219
8145
8131
8210
8075
8261
8036
8265
8080
8241
8086
8112
8106
7996
8193
8016
8358
8080
8304
7990
8180
8006
8106
8079
8069
8121
8035
8174
8161
8242
8270
8155
8245
7987
8255
7988
8344
8078
8388
8232
8330
8209
8135
8194
8053
8207
7991
8148
7995
8097
8064
8084
8162
8056
8222
8100
8252
8145
8159
8173
8068
8267
8062
8358
8011
8320
8027
8331
8104
8235
8134
8162
8191
8072
8157
8069
8149
8105
8078
8146
8040
8212
7949
8169
7932
8148
8003
8132
8116
8080
8215
8034
8290
8038
8321
8077
8301
8130
8231
8195
8163
8236
8128
8211
8130
8190
8231
8177
8340
8108
8345
8013
8317
7995
8287
8065
8251
8174
8190
8230
8099
8230
8052
8206
8072
8165
8133
8129
8222
8077
8203
8018
8181
8065
8165
8221
8212
8348
8060
8279
7960
8284
7968
8243
8018
8191
8090
8141
8168
8106
8218
8120
8208
8147
8113
8164
8024
8218
7989
8253
8005
8245
8036
8200
8143
8158
8258
8129
8329
8075
8311
8043
8248
8092
8195
8168
8148
8250
8126
8207
8088
8120
8123
8071
8227
8018
8274
7993
8348
8017
8323
8042
8197
8039
8101
8137
8076
8230
8099
8236
8097
8171
8148
8117
8217
8079
8255
8061
8234
8080
8197
8175
8157
8285
8104
8317
7987
8297
8005
8295
8068
8243
8110
8131
8134
8070
8154
8068
8122
8091
8139
8284
8152
8330
8042
8290
7974
8223
7996
8187
8109
8132
8168
8035
8221
8016
8266
8062
8269
8129
8221
8205
8166
8235
8121
8236
8086
8151
8124
8079
8195
8005
8243
7965
8307
7987
8300
8017
8228
8088
8166
8167
8128
8248
8131
8262
8133
8192
8157
8114
8218
8064
8271
8074
8295
8110
8231
8171
8170
8210
8044
8276
8007
8284
7984
8238
7957
8114
7999
8022
8047
8031
8147
8092
8222
8222
8202
8250
8100
8296
8035
8326
8027
8356
8153
8419
8269
8262
8199
8067
8206
8045
8295
8127
8314
8159
8207
8157
8119
8165
7991
8111
8011
8123
8079
8063
8149
7974
8220
7959
8275
7941
8278
7990
8200
8034
8145
8140
8130
8228
8102
8200
8103
8197
8190
8151
8284
8101
8302
8045
8258
8056
8220
8119
8156
8203
8092
8263
8022
8296
8018
8309
8097
8279
8133
8180
8169
8110
8186
8092
8150
8100
8114
8218
8112
8318
8038
8309
7983
8319
8069
8350
8171
8216
8150
8069
8183
8042
8240
8073
8225
8093
8158
8172
8128
8246
8093
8245
8093
8210
8150
8185
8246
8117
8300
8009
8300
7958
8257
7963
8239
8128
8322
8246
8205
8241
8096
8140
8024
8032
8002
7961
8104
7971
8230
8001
8292
8068
8285
8148
8218
8216
8123
8242
8034
8280
8022
8270
8046
8214
8087
8140
8141
8110
8249
8169
8271
8192
8174
8190
8033
8219
7989
8282
7955
8266
7942
8184
7978
8116
8059
8055
8173
8069
8217
8072
8239
8124
8175
8197
8142
8292
8136
8332
8169
8318
8223
8280
8309
8181
8339
8065
8338
7981
8270
7967
8215
8016
8136
8076
8142
8259
8171
8213
8084
8107
8123
8073
8208
8006
8230
7978
8297
8030
8218
8037
8178
8143
8098
8206
8048
8290
8085
8311
8101
8301
8164
8144
8124
8060
8165
8088
8232
8179
8193
8189
8065
8229
8002
8330
8026
8345
8017
8285
8059
8224
8150
8152
8181
8070
8200
8067
8178
8092
8119
8141
8075
8224
8046
8240
8046
8235
8103
8176
8158
8092
8238
8028
8289
8003
8311
8013
8267
8068
8211
8151
8158
8174
8093
8205
8093
8116
8099
8044
8183
8021
8285
8011
8304
8008
8270
8051
8198
8122
8137
8208
8072
8274
8083
8299
8113
8264
8109
8098
8104
8058
8197
8071
8201
8096
8180
8195
8145
8317
8095
8362
8022
8331
8016
8341
8112
8289
8139
8126
8143
8078
8178
8072
8183
8108
8142
8179
8086
8234
8044
8277
8056
8264
8101
8222
8182
8152
8246
8064
8314
8058
8367
8081
8307
8090
8232
8159
8172
8218
8115
8167
8071
8111
8088
8041
8157
7984
8261
8015
8347
8017
8275
8008
8181
8065
8135
8187
8089
8222
8020
8207
8073
8238
8129
8172
8191
8096
8235
8091
8253
8143
8250
8241
8179
8270
8067
8313
7977
8282
7944
8245
8000
8207
8074
8163
8165
8110
8211
8106
8186
8115
8139
8193
8095
8256
8032
8249
7974
8203
8007
8177
8122
8147
8218
8080
8231
7955
8200
7959
8222
8043
8178
8068
8084
8124
8067
8163
8076
8149
8117
8089
8214
8077
8325
8073
8441
8149
8462
8132
8276
8110
8198
8223
8168
8283
8129
8301
8154
8307
8207
8174
8175
8035
8147
8007
8235
8131
8251
8187
8112
8162
8017
8271
8011
8322
7981
8273
8009
8249
8108
8193
8156
8082
8150
8062
8135
8091
8141
8203
8095
8259
8056
8331
8053
8312
8045
8227
8099
8161
8185
8102
8248
8037
8267
8027
8265
8074
8195
8115
8120
8155
8069
8193
8081
8186
8139
8118
8189
8047
8270
8000
8328
7986
8282
7962
8191
8022
8160
8174
8173
8242
8121
8290
8130
8224
8117
8098
8157
8088
8281
8102
8302
8069
8174
8063
8099
8154
8034
8232
7991
8279
7974
8279
8020
8249
8103
8181
8152
8125
8200
8112
8215
8150
8167
8184
8084
8250
8041
8318
8019
8286
7993
8221
8092
8224
8220
8142
8203
8016
8247
8040
8285
8093
8163
8084
8074
8124
8052
8198
8096
8193
8121
8127
8185
8056
8253
7990
8296
7968
8298
8009
8280
8096
8267
8229
8213
8260
8134
8262
8128
8232
8155
8147
8201
8081
8273
8074
8299
8077
8243
8122
8186
8194
8103
8252
8034
8317
8031
8320
8074
8299
8094
8187
8163
8134
8164
8077
8180
8124
8166
8181
8070
8200
7966
8216
7922
8212
7910
8149
7970
8165
8156
8143
8240
8098
8266
8061
8272
8156
8304
8216
8170
8238
8140
8308
8160
8278
8180
8188
8169
8033
8211
7983
8286
7976
8295
7958
8224
8007
8163
8090
8102
8166
8104
8239
8117
8167
8111
8112
8246
8129
8314
8075
8309
8051
8257
8095
8185
8145
8097
8202
8001
8243
7997
8276
8037
8259
8104
8219
8194
8176
8238
8123
8200
8102
8150
8174
8092
8246
8046
8317
8005
8308
7960
8204
7980
8165
8096
8110
8162
8037
8199
8037
8226
8093
8207
8183
8159
8259
8134
8307
8129
8270
8144
8209
8206
8127
8264
8049
8320
8002
8326
8016
8292
8044
8210
8105
8148
8180
8098
8198
8103
8188
8146
8134
8216
8069
8259
8011
8276
8012
8249
8058
8195
8135
8130
8224
8065
8266
8023
8275
8041
8244
8061
8143
8130
8131
8238
8118
8220
8126
8193
8182
8096
8208
7989
8244
7953
8269
7926
8211
7963
8178
8107
8174
8170
8059
8182
8042
8189
8108
8223
8196
8153
8241
8083
8258
8057
8238
8090
8199
8164
8137
8249
8062
8316
8025
8338
8027
8298
8049
8229
8118
8172
8195
8133
8217
8121
8197
8166
8139
8215
8081
8290
8029
8310
8018
8296
8055
8236
8138
8154
8183
8065
8236
8016
8246
8030
8243
8116
8213
8185
8134
8224
8104
8228
8111
8187
8168
8135
8230
8040
8284
8003
8334
7993
8294
8002
8230
8084
8175
8173
8139
8227
8069
8175
8075
8148
8134
8102
8214
8059
8259
8041
8251
8061
8210
8141
8147
8222
8064
8283
8020
8293
7991
8267
8027
8212
8094
8159
8162
8101
8182
8103
8189
8159
8150
8217
8072
8273
8006
8293
7981
8261
8003
8210
8082
8168
8180
8104
8245
8063
8262
8050
8225
8083
8162
8155
8128
8244
8112
8224
8074
8172
8106
8074
8167
8003
8235
7970
8290
7976
8306
8025
8257
8090
8194
8160
8133
8206
8096
8211
8119
8191
8190
8134
8252
8079
8290
8049
8278
8050
8228
8122
8182
8225
8127
8298
8066
8343
8081
8371
8131
8310
8171
8208
8203
8141
8231
8116
8202
8158
8158
8208
8076
8281
8031
8323
8006
8317
8019
8253
8085
8191
8159
8111
8209
8046
8225
8048
8192
8075
8139
8134
8091
8188
8060
8213
8061
8185
8117
8141
8208
8084
8278
8005
8300
7979
8306
8015
8257
8063
8166
8091
8066
8114
8027
8131
8059
8121
8122
8092
8214
8059
8319
8107
8393
8138
8307
8154
8223
8215
8131
8257
8045
8299
8030
8282
8044
8214
8092
8167
8155
8107
8202
8097
8188
8103
8103
8139
8004
8198
7982
8289
7976
8303
7993
8243
8031
8174
8119
8117
8201
8078
8233
8089
8248
8128
8188
8188
8125
8253
8087
8271
8099
8251
8156
8202
8227
8119
8275
8041
8326
8010
8322
8015
8273
8064
8200
8132
8122
8174
8095
8190
8105
8168
8164
8106
8222
8043
8277
8014
8298
8032
8266
8084
8202
8159
8130
8227
8061
8265
8030
8256
8043
8208
8094
8146
8155
8096
8196
8079
8189
8105
8153
8174
8079
8249
8021
8305
7980
8305
7985
8268
8034
8197
8112
8139
8176
8080
8206
8070
8192
8098
8144
8152
8084
8229
8048
8262
8058
8261
8121
8209
8202
8143
8265
8059
8313
8022
8328
8029
8297
8080
8226
8158
8178
8199
8113
8193
8108
8165
8132
8082
8190
8017
8275
8015
8321
8015
8279
8056
8217
8133
8144
8203
8075
8248
8045
8259
8057
8214
8100
8145
8152
8092
8205
8077
8215
8109
8187
8185
8122
8257
8051
8323
8005
8334
8005
8309
8046
8238
8111
8166
8172
8096
8209
8089
8190
8116
8147
8180
8094
8244
8049
8273
8047
8254
8071
8207
8154
8134
8227
8065
8293
8026
8312
8022
8276
8057
8204
8113
8118
8153
8088
8176
8093
8172
8139
8093
8201
8032
8268
7994
8318
8001
8300
8043
8247
8139
8194
8223
8130
8254
8072
8259
8074
8231
8126
8158
8189
8103
8237
8087
8234
8101
8190
8162
8117
8225
8039
8281
7998
8324
7997
8302
8032
8237
8094
8173
8168
8120
8209
8107
8204
8123
8155
8182
8089
8242
8034
8276
8023
8258
8046
8209
8118
8144
8190
8066
8258
8029
8299
8030
8278
8065
8213
8124
8153
8181
8099
8208
8105
8192
8160
8137
8219
8060
8287
8008
8312
7983
8303
8017
8225
8058
8145
8135
8078
8191
8047
8225
8069
8207
8112
8134
8169
8094
8242
8077
8262
8105
8233
8163
8171
8239
8094
8313
8028
8328
8003
8308
8032
8253
8094
8190
8168
8147
8222
8121
8210
8139
8170
8185
8084
8231
8027
8279
8004
8272
8032
8229
8087
8145
8154
8081
8223
8027
8275
8038
8275
8073
8210
8127
8149
8192
8103
8209
8101
8192
8139
8133
8200
8062
8271
8015
8315
7985
8313
8002
8253
8064
8187
8135
8111
8182
8062
8202
8058
8171
8113
8129
8180
8075
8237
8045
8235
8053
8211
8117
8167
8204
8099
8284
8047
8337
8023
8328
8042
8273
8096
8193
8158
8124
8189
8093
8178
8111
8131
8169
8077
8228
8022
8288
8004
8302
8021
8258
8090
8193
8166
8122
8228
8066
8278
8055
8275
8104
8245
8163
8165
8209
8112
8226
8101
8215
8144
8158
8202
8082
8271
8014
8319
7993
8326
8008
8278
8057
8207
8133
8133
8181
8086
8202
8084
8176
8123
8129
8185
8067
8249
8039
8252
8038
8223
8101
8173
8173
8097
8246
8032
8298
8009
8309
8034
8259
8073
8179
8138
8129
8203
8115
8207
8131
8176
8195
8099
8250
8036
8307
8008
8316
8008
8271
8058
8206
8133
8122
8197
8069
8252
8058
8256
8084
8207
8135
8127
8194
8088
8215
8065
8213
8113
8161
8187
8104
8263
8038
8327
8000
8318
7992
8260
8026
8197
8119
8152
8191
8107
8218
8112
8194
8143
8132
8198
8073
8264
8043
8292
8041
8256
8077
8194
8153
8118
8221
8037
8264
8008
8283
8023
8236
8068
8181
8132
8129
8193
8106
8206
8131
8180
8192
8127
8257
8044
8300
7994
8311
7997
8276
8029
8201
8104
8134
8179
8063
8217
8048
8229
8090
8207
8154
8144
8237
8109
8265
8088
8248
8133
8198
8179
8113
8245
8038
8310
8006
8321
8009
8296
8046
8231
8132
8172
8195
8119
8212
8109
8195
8144
8136
8211
8067
8264
8020
8294
8029
8270
8061
8205
8124
8113
8188
8048
8248
8015
8260
8016
8224
8063
8185
8149
8139
8229
8123
8221
8113
8163
8158
8095
8223
8026
8293
7997
8322
7996
8302
8037
8237
8105
8162
8166
8094
8216
8074
8227
8097
8187
8141
8114
8200
8072
8254
8074
8259
8090
8203
8156
8122
8219
8044
8283
8013
8325
8013
8298
8050
8236
8105
8154
8167
8110
8200
8098
8181
8129
8125
8193
8056
8258
8014
8301
8024
8299
8047
8224
8109
8139
8169
8050
8219
8019
8257
8034
8242
8092
8197
8158
8134
8212
8096
8220
8100
8178
8156
8127
8223
8038
8288
7996
8319
7990
8311
8022
8244
8076
8167
8148
8100
8207
8081
8215
8106
8193
8163
8134
8227
8081
8267
8059
8271
8087
8235
8160
8172
8234
8100
8291
8027
8320
8020
8301
8047
8239
8104
8168
8169
8112
8187
8100
8177
8121
8115
8193
8067
8252
8004
8293
7990
8271
8010
8227
8078
8153
8160
8092
8223
8053
8250
8058
8243
8089
8186
8149
8114
8207
8086
8233
8104
8209
8167
8159
8234
8084
8290
8015
8331
8005
8328
8024
8265
8082
8191
8152
8136
8202
8091
8204
8105
8183
8153
8123
8215
8055
8265
8023
8258
8043
8225
8099
8148
8179
8082
8241
8010
8271
7994
8265
8022
8210
8091
8174
8173
8126
8228
8118
8201
8150
8157
8212
8094
8286
8042
8336
8015
8335
8036
8285
8098
8205
8162
8134
8219
8071
8240
8063
8231
8095
8160
8150
8108
8205
8069
8226
8069
8205
8108
8137
8176
8055
8244
7993
8299
7973
8300
7997
8255
8063
8211
8162
8176
8226
8129
8237
8124
8186
8169
8124
8237
8077
8296
8042
8300
8041
8259
8106
8182
8158
8104
8229
8033
8267
8015
8271
8045
8230
8104
8174
8155
8100
8182
8083
8189
8118
8146
8174
8075
8248
8013
8301
7977
8307
7993
8265
8055
8216
8145
8143
8194
8079
8228
8078
8226
8114
8168
8180
8118
8244
8096
8288
8091
8247
8128
8181
8188
8104
8257
8034
8310
7995
8304
8001
8268
8050
8191
8115
8126
8178
8104
8183
8103
8173
8173
8118
8217
8051
8287
8021
8303
8019
8274
8061
8200
8144
8133
8218
8060
8257
8035
8275
8055
8225
8101
8156
8156
8106
8189
8072
8188
8103
8159
8174
8108
8247
8030
8315
8003
8344
8016
8309
8053
8241
8134
8168
8199
8117
8234
8090
8230
8122
8163
8176
8098
8233
8056
8256
8037
8222
8062
8160
8132
8098
8217
8023
8264
7987
8285
7987
8244
8044
8204
8133
8169
8203
8132
8232
8127
8191
8182
8144
8251
8082
8320
8045
8337
8028
8314
8065
8240
8136
8154
8196
8082
8242
8049
8259
8062
8223
8107
8153
8162
8098
8207
8076
8207
8086
8169
8152
8100
8223
8025
8283
7984
8313
7981
8297
8031
8234
8095
8158
8151
8091
8195
8086
8191
8119
8157
8182
8096
8248
8051
8268
8032
8262
8076
8217
8153
8149
8221
8068
8277
8026
8307
8023
8284
8063
8214
8120
8160
8179
8105
8186
8104
8180
8152
8126
8215
8056
8288
8012
8313
8001
8307
8039
8247
8112
8184
8197
8118
8241
8074
8257
8075
8237
8124
8159
8181
8101
8230
8073
8231
8086
8198
8150
8129
8219
8049
8281
8005
8318
7984
8294
8016
8238
8077
8172
8153
8105
8185
8081
8172
8106
8145
8172
8082
8245
8044
8289
8040
8300
8075
8245
8123
8164
8195
8093
8257
8035
8293
8034
8274
8067
8209
8112
8139
8170
8101
8201
8095
8180
8149
8132
8206
8057
8279
8005
8315
7987
8305
8008
8252
8076
8181
8149
8112
8208
8072
8230
8072
8204
8113
8147
8185
8098
8250
8067
8249
8082
8218
8144
8154
8215
8071
8275
8010
8311
7998
8309
8022
8250
8076
8189
8148
8129
8206
8111
8206
8126
8164
8185
8091
8233
8031
8287
8013
8296
8032
8245
8091
8169
8174
8103
8232
8039
8258
8031
8259
8061
8206
8114
8138
8187
8105
8210
8089
8190
8126
8131
8188
8054
8255
8003
8319
7985
8319
8010
8272
8067
8201
8143
8133
8215
8098
8254
8117
8239
8146
8160
8202
8092
8254
8062
8268
8062
8230
8124
8170
8187
8106
8270
8036
8316
7999
8300
8023
8250
8082
8195
8144
8120
8182
8094
8180
8113
8143
8176
8088
8236
8036
8290
8001
8297
8013
8257
8084
8198
8155
8118
8218
8056
8244
8035
8250
8062
8194
8113
8132
8188
8102
8240
8101
8215
8130
8154
8185
8070
8252
8013
8309
7996
8331
8009
8280
8056
8222
8146
8152
8192
8098
8217
8098
8198
8134
8149
8203
8084
8253
8044
8274
8039
8239
8088
8175
8157
8101
8232
8034
8288
8004
8292
8034
8265
8080
8200
8140
8130
8196
8113
8206
8122
8167
8181
8102
8248
8044
8313
8010
8319
8014
8277
8048
8203
8121
8128
8198
8071
8232
8042
8243
8072
8191
8120
8127
8180
8091
8223
8073
8224
8121
8171
8175
8101
8253
8031
8304
7994
8319
7997
8286
8042
8223
8126
8158
8184
8113
8220
8115
8200
8134
8138
8206
8080
8257
8035
8280
8024
8259
8069
8196
8143
8118
8213
8045
8268
8020
8280
8025
8255
8073
8192
8142
8136
8195
8105
8209
8116
8177
8171
8105
8240
8046
8307
8005
8329
8008
8302
8048
8242
8122
8164
8183
8083
8225
8060
8233
8086
8193
8132
8120
8195
8080
8238
8060
8221
8093
8182
8157
8114
8231
8037
8306
7998
8317
7994
8292
8042
8229
8127
8176
8186
8131
8225
8124
8212
8147
8141
8207
8068
8261
8022
8291
8019
8258
8051
8222
8138
8150
8208
8066
8254
8038
8285
8049
8269
8099
8207
8152
8131
8203
8100
8208
8110
8179
8166
8122
8238
8046
8295
7991
8314
7988
8296
8026
8234
8105
8167
8173
8104
8219
8079
8219
8097
8177
8146
8126
8203
8071
8254
8053
8239
8073
8200
8149
8133
8225
8046
8272
8000
8312
7998
8292
8037
8235
8108
8173
8166
8109
8201
8105
8186
8127
8124
8197
8069
8270
8022
8312
8020
8305
8047
8244
8121
8162
8180
8075
8242
8047
8268
8044
8250
8087
8190
8149
8128
8209
8098
8226
8109
8192
8155
8124
8212
8045
8277
7993
8319
7985
8304
8023
8244
8082
8185
8160
8129
8214
8093
8212
8103
8190
8152
8128
8220
8073
8271
8055
8261
8064
8218
8121
8142
8193
8063
8256
8007
8291
7998
8288
8035
8236
8097
8177
8170
8133
8228
8138
8218
8160
8163
8215
8086
8282
8034
8311
8004
8312
8026
8252
8096
8178
8165
8116
8229
8065
8264
8058
8250
8093
8186
8147
8121
8202
8077
8221
8084
8200
8133
8141
8197
8050
8265
7997
8312
7984
8311
8007
8256
8065
8185
8144
8132
8190
8085
8204
8102
8166
8144
8097
8207
8050
8258
8026
8277
8036
8235
8115
8179
8191
8100
8253
8039
8306
8023
8294
8051
8237
8108
8181
8175
8123
8210
8109
8199
8134
8149
8192
8082
8261
8013
8304
7985
8308
8006
8265
8064
8191
8146
8119
8200
8068
8235
8068
8239
8110
8181
8158
8109
8212
8070
8229
8071
8217
8123
8167
8198
8091
8260
8014
8311
7994
8315
8011
8257
8063
8205
8142
8144
8189
8102
8202
8111
8177
8148
8115
8222
8059
8285
8022
8293
8030
8256
8089
8188
8163
8115
8233
8048
8271
8029
8282
8050
8233
8098
8172
8156
8115
8185
8091
8200
8126
8162
8194
8090
8253
8026
8306
7999
8327
8004
8282
8060
8221
8137
8146
8197
8085
8234
8083
8237
8116
8169
8159
8109
8228
8062
8257
8060
8231
8102
8171
8172
8101
8238
8026
8301
7989
8305
8001
8271
8054
8207
8121
8147
8180
8104
8186
8105
8157
8134
8099
8210
8040
8279
8002
8298
8020
8271
8067
8222
8160
8154
8231
8075
8271
8060
8291
8082
8259
8125
8189
8183
8118
8209
8093
8215
8133
8175
8185
8111
8252
8033
8308
7999
8323
7991
8296
8040
8225
8115
8152
8174
8089
8204
8080
8217
8114
8159
8159
8101
8238
8058
8259
8044
8242
8086
8196
8158
8121
8235
8049
8301
8017
8318
8017
8285
8067
8225
8132
8165
8191
8117
8207
8111
8171
8154
8113
8212
8052
8281
8005
8307
8003
8277
8027
8207
8112
8146
8185
8074
8234
8040
8253
8053
8215
8103
8158
8164
8104
8203
8078
8215
8102
8188
8169
8121
8234
8043
8303
7998
8326
7998
8309
8034
8241
8107
8179
8181
8120
8215
8100
8220
8123
8159
8175
8097
8241
8048
8276
8042
8265
8070
8214
8139
8138
8200
8052
8259
8014
8300
8013
8274
8051
8210
8113
8144
8177
8108
8199
8110
8190
8158
8139
8223
8065
8292
8024
8323
8007
8306
8025
8243
8096
8171
8174
8107
8231
8070
8263
8076
8215
8121
8154
8168
8099
8233
8065
8225
8089
8197
8146
8135
8217
8058
8278
7997
8315
7986
8307
8031
8252
8093
8189
8158
8121
8209
8100
8191
8120
8152
8184
8104
8252
8050
8283
8028
8273
8047
8229
8119
8168
8196
8087
8254
8027
8275
8016
8261
8049
8210
8114
8149
8185
8109
8205
8101
8191
8153
8135
8210
8063
8279
8008
8319
7992
8313
8014
8255
8073
8180
8154
8119
8206
8076
8235
8086
8231
8127
8152
8194
8106
8248
8073
8251
8082
8226
8140
8155
8204
8064
8264
8010
8318
8001
8321
8041
8266
8088
8188
8151
8121
8194
8099
8184
8114
8148
8174
8094
8235
8036
8286
8006
8283
8019
8227
8085
8168
8165
8107
8234
8040
8275
8032
8260
8057
8205
8118
8138
8171
8103
8218
8103
8212
8154
8169
8213
8088
8284
8034
8338
8007
8333
8024
8283
8076
8214
8149
8144
8210
8097
8230
8098
8208
8123
8142
8193
8088
8247
8051
8254
8058
8218
8098
8144
8154
8061
8234
8011
8290
7994
8294
8021
8250
8079
8195
8152
8130
8194
8099
8198
8113
8162
8173
8087
8230
8028
8292
7999
8304
8013
8262
8064
8195
8149
8128
8221
8065
8261
8060
8262
8075
8215
8129
8145
8190
8106
8223
8089
8209
8124
8163
8190
8081
8253
8017
8317
7979
8318
7997
8274
8053
8216
8125
8150
8192
8092
8209
8093
8201
8132
8145
8202
8089
8261
8050
8278
8047
8248
8103
8188
8175
8117
8241
8045
8298
8012
8305
8032
8272
8081
8199
8143
8136
8195
8114
8211
8131
8180
8180
8104
8247
8040
8294
8001
8316
8001
8271
8052
8215
8131
8137
8190
8064
8230
8052
8246
8075
8195
8123
8137
8196
8094
8241
8077
8214
8114
8171
8180
8105
8244
8035
8307
7992
8326
8002
8297
8044
8224
8129
8146
8164
8086
8188
8078
8165
8117
8123
8196
8083
8271
8045
8296
8051
8283
8103
8201
8129
8101
8194
8027
8249
8014
8299
8053
8285
8093
8197
8129
8117
8167
8093
8205
8118
8178
8175
8106
8227
8042
8310
8028
8360
8046
8347
8080
8262
8143
8189
8211
8127
8252
8088
8253
8095
8200
8143
8133
8201
8082
8245
8077
8239
8101
8206
8177
8130
8229
8023
8265
7977
8282
7963
8258
8009
8213
8088
8140
8162
8111
8217
8139
8219
8143
8142
8211
8072
8271
8030
8292
8027
8285
8059
8220
8130
8152
8208
8071
8249
8028
8277
8035
8252
8077
8192
8138
8129
8193
8087
8203
8103
8177
8150
8113
8221
8036
8289
7988
8313
7981
8291
8020
8235
8096
8165
8173
8098
8218
8076
8216
8088
8182
8137
8119
8196
8068
8245
8042
8234
8069
8201
8146
8145
8233
8066
8306
8024
8330
8020
8304
8043
8235
8102
8169
8160
8112
8191
8101
8179
8124
8122
8200
8072
8263
8018
8292
7993
8263
8020
8215
8086
8137
8165
8087
8242
8055
8280
8061
8261
8100
8196
8147
8127
8203
8088
8212
8096
8199
8155
8139
8234
8068
8304
8012
8332
7998
8322
8034
8269
8100
8190
8166
8130
8211
8095
8218
8101
8189
8154
8123
8213
8069
8262
8041
8255
8060
8219
8123
8145
8193
8060
8254
8004
8296
8003
8288
8037
8239
8104
8176
8176
8124
8204
8108
8191
8136
8154
8202
8076
8278
8027
8315
8006
8314
8035
8259
8108
8197
8182
8119
8234
8067
8276
8072
8262
8114
8202
8165
8141
8230
8092
8234
8095
8197
8133
8137
8199
8056
8258
7997
8310
7977
8304
8003
8251
8064
8189
8139
8127
8192
8092
8205
8098
8168
8147
8108
8202
8050
8263
8028
8262
8039
8227
8099
8162
8170
8089
8241
8024
8286
8016
8289
8048
8238
8102
8171
8166
8117
8196
8109
8201
8135
8156
8196
8085
8261
8020
8310
7989
8309
8010
8268
8071
8199
8146
8136
8212
8069
8233
8059
8227
8090
8175
8154
8112
8223
8074
8237
8076
8210
8126
8154
8191
8077
8272
8029
8322
7998
8328
8028
8291
8081
8216
8151
8160
8209
8115
8224
8118
8193
8178
8130
8234
8061
8283
8029
8300
8040
8257
8089
8191
8167
8115
8233
8046
8269
8029
8281
8051
8232
8094
8170
8157
8108
8189
8099
8203
8138
8160
8195
8085
8253
8025
8320
8005
8332
8016
8310
8077
8236
8148
8164
8220
8106
8240
8077
8228
8106
8166
8166
8110
8215
8068
8257
8059
8220
8099
8169
8168
8085
8232
8019
8297
7990
8299
8003
8262
8043
8196
8105
8121
8168
8092
8183
8103
8168
8158
8104
8214
8041
8274
8006
8290
8011
8255
8047
8179
8114
8105
8191
8038
8234
8014
8253
8043
8221
8115
8204
8225
8159
8260
8124
8237
8146
8189
8191
8105
8247
8027
8305
7983
8315
7990
8289
8031
8226
8112
8148
8175
8095
8217
8083
8216
8103
8149
8160
8091
8215
8052
8269
8052
8246
8096
8201
8163
8118
8232
8043
8285
8011
8311
8022
8291
8062
8213
8128
8164
8192
8120
8227
8121
8188
8170
8120
8224
8051
8282
7998
8298
7992
8267
8033
8209
8115
8145
8192
8074
8244
8040
8257
8062
8218
8103
8151
8166
8112
8237
8093
8226
8111
8190
8165
8117
8238
8039
8302
7998
8330
8000
8304
8032
8240
8112
8171
8171
8110
8219
8099
8222
8127
8157
8180
8099
8237
8046
8283
8043
8269
8074
8215
8146
8151
8218
8058
8269
8019
8296
8012
8267
8046
8197
8111
8141
8175
8104
8189
8092
8167
8148
8116
8217
8051
8290
8012
8319
7996
8299
8026
8240
8108
8167
8186
8110
8237
8071
8258
8080
8241
8129
8164
8188
8108
8240
8081
8234
8092
8191
8144
8117
8206
8038
8277
7999
8317
7997
8310
8037
8251
8095
8189
8167
8116
8198
8097
8191
8113
8145
8178
8087
8250
8045
8286
8025
8275
8054
8230
8127
8159
8199
8087
8262
8040
8298
8038
8279
8066
8219
8126
8150
8189
8112
8214
8117
8194
8158
8139
8208
8054
8277
8000
8308
7987
8304
8017
8254
8090
8181
8167
8111
8215
8071
8230
8076
8197
8100
8120
8150
8070
8213
8058
8237
8059
8189
8125
8140
8218
8091
8294
8036
8320
8010
8329
8065
8306
8137
8223
8204
8171
8232
8122
8209
8129
8165
8189
8097
8265
8046
8301
8015
8291
8036
8240
8094
8165
8174
8095
8229
8034
8274
8030
8259
8063
8199
8115
8138
8173
8100
8202
8094
8188
8142
8140
8196
8057
8259
7992
8311
7979
8316
8008
8264
8072
8193
8158
8134
8211
8091
8231
8094
8205
8130
8151
8204
8097
8254
8060
8270
8070
8228
8117
8156
8189
8082
8258
8025
8312
8002
8306
8024
8249
8076
8187
8150
8128
8193
8102
8200
8124
8162
8182
8087
8241
8032
8296
7998
8297
8023
8262
8085
8193
8163
8117
8225
8061
8274
8051
8254
8077
8204
8132
8135
8194
8096
8216
8091
8201
8127
8148
8187
8076
8260
8008
8308
7985
8313
8005
8268
8056
8197
8129
8141
8195
8094
8215
8101
8203
8135
8138
8196
8086
8257
8036
8266
8046
8232
8096
8171
8164
8095
8235
8033
8298
8013
8305
8037
8271
8099
8211
8172
8142
8193
8104
8193
8112
8152
8175
8081
8234
8032
8296
8002
8314
8007
8269
8053
8204
8137
8126
8204
8069
8244
8049
8245
8078
8191
8129
8127
8182
8092
8224
8076
8213
8116
8166
8174
8067
8231
7998
8290
7975
8310
7993
8279
8040
8206
8124
8161
8194
8118
8203
8093
8200
8163
8177
8226
8105
8287
8049
8267
8005
8230
8054
8173
8136
8098
8208
8042
8277
8014
8295
8049
8292
8128
8249
8211
8195
8257
8144
8245
8140
8187
8183
8106
8248
8046
8309
8005
8326
8006
8289
8042
8209
8103
8133
8157
8018
8161
7993
8147
8027
8144
8122
8122
8189
8072
8225
8064
8242
8151
8268
8280
8217
8351
8134
8371
8045
8340
8000
8280
8037
8216
8093
8140
8159
8094
8181
8072
8154
8098
8070
8120
7998
8203
7982
8267
8015
8276
8072
8220
8148
8152
8240
8114
8317
8087
8350
8108
8321
8141
8235
8184
8149
8212
8105
8216
8115
8176
8160
8094
8216
8029
8282
7983
8313
7985
8296
8022
8226
8109
8169
8178
8106
8223
8080
8231
8084
8162
8126
8110
8193
8058
8242
8041
8230
8076
8189
8152
8126
8226
8048
8285
8004
8317
8002
8288
8039
8224
8102
8170
8172
8110
8194
8093
8179
8126
8120
8196
8064
8267
8024
8305
8012
8283
8047
8228
8122
8159
8188
8074
8242
8039
8270
8044
8242
8082
8185
8141
8121
8189
8092
8208
8097
8188
8159
8126
8230
8053
8301
8007
8330
7996
8328
8047
8273
8118
8196
8179
8114
8202
8077
8226
8108
8187
8144
8112
8206
8060
8259
8039
8239
8056
8208
8129
8137
8202
8058
8270
8016
8303
8009
8286
8036
8234
8105
8168
8164
8102
8187
8100
8180
8132
8121
8188
8043
8237
7987
8270
7972
8285
8017
8244
8101
8185
8200
8143
8284
8110
8297
8089
8268
8120
8208
8178
8131
8235
8096
8237
8106
8207
8151
8140
8199
8045
8264
7984
8305
7977
8316
8037
8291
8125
8229
8189
8157
8227
8112
8237
8121
8195
8181
8136
8234
8070
8278
8040
8284
8058
8213
8082
8124
8153
8038
8214
7996
8257
7983
8263
8025
8219
8094
8182
8200
8185
8259
8146
8230
8169
8160
8201
8069
8254
8010
8304
7983
8303
8005
8247
8062
8188
8154
8099
8170
8014
8184
8011
8171
8061
8131
8131
8087
8183
8065
8232
8101
8265
8196
8205
8243
8127
8304
8046
8329
8005
8324
8016
8270
8075
8202
8151
8156
8207
8106
8210
8120
8185
8170
8112
8214
8045
8262
7998
8254
8010
8215
8053
8153
8158
8108
8239
8062
8312
8051
8289
8053
8255
8122
8153
8136
8080
8165
8078
8184
8105
8131
8167
8076
8276
8048
8366
8066
8420
8085
8349
8107
8227
8146
8140
8209
8101
8265
8109
8253
8109
8137
8102
8021
8133
7993
8171
8002
8175
8068
8143
8161
8067
8240
8025
8325
8040
8354
8050
8302
8081
8218
8147
8151
8189
8103
8205
8116
8180
8181
8127
8240
8053
8281
8008
8291
8014
8265
8093
8215
8160
8137
8236
8080
8289
8051
8277
8065
8239
8108
8156
8150
8097
8185
8076
8194
8114
8152
8171
8073
8231
8003
8301
7984
8323
7993
8282
8048
8221
8125
8152
8187
8097
8217
8081
8216
8101
8149
8175
8106
8252
8076
8292
8085
8267
8107
8180
8150
8103
8241
8067
8338
8029
8311
8010
8281
8063
8220
8150
8159
8167
8058
8123
8031
8098
8098
8076
8202
8032
8279
8013
8318
8015
8283
8057
8220
8128
8135
8192
8070
8251
8050
8275
8071
8222
8111
8151
8147
8083
8187
8072
8205
8100
8182
8201
8161
8305
8108
8370
8057
8376
8036
8339
8071
8258
8134
8181
8189
8113
8225
8094
8189
8111
8149
8183
8101
8250
8055
8275
8027
8241
8048
8182
8122
8116
8221
8067
8312
8033
8320
8033
8284
8064
8202
8111
8137
8161
8098
8184
8100
8165
8124
8075
8173
7970
8176
7913
8234
7934
8234
7987
8187
8085
8160
8223
8177
8363
8213
8402
8202
8315
8207
8250
8258
8161
8284
8115
8256
8124
8211
8174
8135
8235
8058
8304
8006
8326
8006
8312
8038
8251
8101
8177
8171
8106
8188
8082
8178
8104
8139
8177
8080
8221
8020
8255
7997
8242
8031
8208
8120
8151
8205
8087
8264
8048
8315
8040
8280
8058
8195
8101
8126
8160
8089
8169
8072
8157
8129
8088
8180
8019
8237
7977
8287
7955
8291
8027
8268
8136
8241
8228
8145
8216
8034
8154
7958
8045
7968
7994
8030
7964
8108
7980
8188
8080
8256
8252
8268
8313
8144
8348
8054
8350
8053
8378
8083
8310
8153
8244
8224
8187
8259
8146
8238
8140
8152
8196
8097
8244
8024
8271
7986
8242
7997
8189
8051
8138
8192
8136
8301
8093
8341
8089
8303
8088
8218
8125
8145
8183
8099
8205
8091
8186
8147
8166
8268
8144
8348
8055
8345
7988
8309
8014
8270
8075
8178
8122
8075
8182
8081
8224
8100
8215
8150
8153
8174
8036
8157
7976
8143
7948
8111
8029
8114
8198
8092
8239
7956
8203
7887
8202
7969
8250
8122
8233
8212
8204
8272
8165
8259
8172
8188
8208
8112
8281
8075
8344
8056
8353
8070
8299
8130
8226
8193
8140
8248
8076
8289
8056
8276
8092
8219
8137
8141
8190
8092
8217
8083
8181
8117
8127
8178
8055
8247
7989
8299
7982
8322
7988
8229
8006
8150
8085
8114
8192
8094
8225
8109
8236
8176
8159
8199
8071
8266
8066
8302
8081
8276
8145
8203
8202
8120
8253
8026
8288
7989
8281
8024
8260
8087
8193
8127
8108
8188
8100
8169
8103
8152
8168
8081
8248
8068
8329
8010
8292
7970
8220
8013
8170
8121
8124
8217
8077
8250
8052
8233
8063
8169
8110
8113
8168
8077
8216
8077
8223
8132
8172
8189
8083
8237
8012
8304
7968
8297
7982
8273
8056
8234
8168
8179
8199
8145
8294
8184
8261
8168
8125
8185
8062
8256
8053
8323
8086
8288
8082
8142
8072
8027
8189
8067
8335
8070
8340
8083
8282
8079
8175
8127
8119
8180
8116
8227
8127
8152
8138
8044
8168
7976
8266
7996
8366
8079
8342
8043
8208
8140
8167
8187
8071
8244
8103
8268
8092
8197
8138
8108
8181
8093
8261
8071
8224
8090
8155
8132
8089
8237
8038
8317
8031
8350
8009
8271
8010
8187
8077
8127
8157
8096
8208
8119
8205
8172
8168
8229
8100
8299
8052
8281
7978
8212
8003
8159
8092
8105
8178
8042
8247
8020
8296
8083
8328
8184
8288
8258
8244
8299
8189
8270
8123
8156
8143
8080
8212
8028
8305
8010
8332
8017
8342
8079
8267
8089
8109
8106
8044
8200
8076
8248
8127
8252
8221
8200
8277
8116
8285
8100
8294
8114
8203
8148
8134
8240
8068
8277
7979
8269
7954
8237
7995
8193
8086
8168
8173
8118
8187
8087
8150
8107
8108
8168
8025
8221
7989
8271
7980
8252
7993
8172
8039
8116
8170
8135
8357
8183
8363
8078
8241
8057
8133
8095
8080
8163
8084
8218
8107
8208
8165
8141
8238
8057
8307
8021
8347
8026
8355
8055
8259
8080
8172
8163
8111
8200
8090
8213
8096
8171
8139
8108
8193
8040
8205
7990
8204
8021
8180
8087
8108
8157
8030
8241
8021
8331
8059
8330
8081
8289
8127
8172
8144
8090
8157
8105
8250
8235
8235
8262
8110
8290
8018
8264
7947
8264
8011
8267
8135
8210
8168
8090
8219
8041
8232
8046
8245
8104
8165
8135
8096
8177
8072
8208
8073
8179
8113
8114
8184
8049
8282
8030
8348
8019
8341
8036
8282
8084
8176
8116
8082
8134
8042
8159
8070
8150
8148
8124
8254
8100
8327
8108
8394
8218
8415
8265
8272
8262
8126
8229
7982
8246
8001
8284
8047
8251
8124
8178
8138
8087
8144
8048
8132
8080
8082
8131
8025
8214
7968
8263
7952
8272
7980
8238
8054
8200
8171
8170
8279
8163
8334
8155
8339
8200
8235
8189
8143
8268
8115
8249
8049
8167
8062
8102
8153
8048
8266
8029
8301
7978
8303
8001
8256
8059
8195
8143
8116
8141
8042
8132
8051
8118
8116
8089
8203
8033
8267
8026
8317
8105
8343
8171
8258
8232
8169
8272
8065
8291
8034
8289
8060
8259
8117
8170
8149
8088
8163
8058
8148
8080
8111
8173
8083
8266
8028
8309
7996
8342
8033
8313
8087
8247
8152
8142
8185
8060
8205
8056
8232
8131
8193
8154
8076
8180
8044
8234
8061
8263
8182
8238
8222
8098
8231
8010
8266
7961
8276
7969
8233
8036
8178
8090
8106
8124
8055
8157
8099
8188
8186
8131
8237
8054
8280
8013
8303
8049
8330
8126
8226
8148
8124
8199
8049
8259
8055
8293
8072
8274
8159
8230
8208
8135
8224
8084
8177
8083
8152
8171
8104
8252
8034
8313
7998
8318
7983
8258
8011
8203
8114
8154
8174
8069
8188
8042
8166
8086
8143
8181
8133
8291
8099
8290
8064
8251
8108
8217
8194
8155
8264
8063
8302
8003
8292
8002
8257
8050
8224
8149
8170
8173
8070
8131
8040
8097
8103
8100
8223
8056
8299
8017
8283
7973
8245
8027
8203
8100
8134
8200
8103
8267
8086
8305
8113
8304
8241
8298
8273
8151
8235
8069
8183
8055
8140
8138
8103
8241
8050
8307
8005
8354
8048
8350
8069
8273
8135
8168
8189
8165
8313
8156
8209
8086
8098
8109
8026
8170
8032
8295
8066
8285
8096
8231
8149
8129
8208
8043
8230
7955
8234
7975
8251
8045
8189
8086
8099
8132
8081
8195
8123
8202
8168
8130
8234
8083
8304
8009
8303
7966
8259
8004
8217
8101
8182
8215
8152
8301
8155
8348
8158
8291
8186
8217
8216
8115
8232
8063
8214
8082
8190
8140
8103
8189
8020
8259
7982
8305
7981
8286
7992
8214
8071
8172
8182
8156
8209
8080
8146
8076
8123
8147
8083
8230
8011
8255
8003
8253
8030
8194
8052
8087
8127
8030
8248
8064
8358
8102
8324
8106
8263
8159
8152
8187
8111
8206
8111
8187
8112
8078
8180
8031
8227
7952
8254
7944
8295
8027
8261
8106
8223
8228
8205
8316
8177
8336
8200
8357
8268
8230
8205
8087
8225
8064
8276
8083
8205
8118
8132
8179
8034
8244
7986
8299
7972
8250
7959
8192
8032
8137
8066
8036
8092
8010
8112
8063
8113
8169
8107
8276
8075
8329
8091
8394
8146
8354
8178
8234
8199
8114
8242
8051
8281
8017
8227
8037
8198
8145
8195
8224
8112
8171
8057
8155
8086
8130
8216
8131
8332
8053
8354
8026
8351
8032
8280
8070
8217
8187
8192
8236
8107
8268
8134
8250
8134
8095
8087
7976
8123
7968
8190
8016
8218
8136
8216
8228
8099
8205
7962
8225
7932
8251
7996
8273
8093
8198
8151
8143
8207
8113
8199
8126
8178
8213
8185
8395
8209
8402
8068
8344
8026
8259
8054
8202
8169
8137
8207
8052
8257
8062
8266
8070
8188
8110
8117
8128
8033
8151
8028
8154
8073
8123
8161
8070
8250
8009
8310
8002
8337
8014
8304
8066
8226
8143
8165
8195
8113
8235
8130
8249
8148
8146
8198
8098
8274
8066
8292
8050
8258
8134
8248
8207
8136
8215
8007
8234
7966
8273
8005
8224
8040
8167
8118
8118
8162
8075
8141
8048
8110
8149
8095
8227
8002
8230
7938
8243
7933
8211
7999
8200
8156
8196
8246
8120
8262
8066
8257
8109
8241
8164
8180
8234
8122
8262
8093
8242
8129
8173
8174
8109
8243
8039
8321
8020
8344
8022
8324
8077
8281
8216
8268
8270
8181
8272
8146
8234
8151
8143
8187
8062
8249
8040
8325
8110
8351
8124
8210
8119
8080
8166
8029
8226
7942
8184
7931
8162
8020
8144
8090
8091
8137
8074
8200
8121
8187
8200
8173
8306
8120
8376
8079
8385
8060
8355
8096
8290
8158
8179
8187
8084
8209
8051
8206
8061
8155
8109
8105
8169
8062
8209
8039
8210
8060
8160
8131
8100
8207
8020
8270
7991
8312
7997
8295
8042
8230
8106
8179
8188
8131
8227
8130
8218
8135
8115
8174
8055
8232
8023
8293
8006
8255
8032
8202
8110
8162
8216
8084
8248
8028
8266
8025
8213
8022
8113
8065
8060
8126
8043
8155
8059
8171
8190
8184
8284
8130
8368
8070
8412
8091
8394
8070
8245
8060
8137
8128
8075
8190
8073
8239
8104
8200
8145
8119
8191
8061
8212
8021
8212
8036
8180
8119
8135
8217
8075
8298
8052
8377
8085
8387
8133
8328
8155
8188
8152
8105
8194
8107
8195
8135
8135
8194
8086
8296
8063
8334
8018
8282
8017
8234
8097
8168
8175
8094
8221
8036
8249
8038
8241
8087
8200
8156
8128
8182
8093
8215
8068
8132
8056
8053
8190
8048
8259
7980
8292
7957
8286
8015
8291
8163
8269
8213
8162
8238
8141
8268
8137
8201
8121
8080
8175
8039
8219
7988
8216
8019
8182
8041
8081
8109
7991
8180
7961
8268
7997
8284
8034
8249
8120
8235
8315
8351
8410
8249
8281
8198
8176
8190
8062
8249
8015
8305
7975
8255
7971
8219
8070
8203
8174
8149
8268
8106
8279
8070
8248
8096
8197
8165
8141
8215
8087
8220
8074
8205
8148
8175
8235
8117
8310
8057
8360
8007
8311
8012
8282
8075
8195
8126
8109
8170
8073
8177
8082
8153
8132
8101
8199
8048
8264
8024
8272
8026
8230
8097
8167
8173
8100
8242
8024
8267
8004
8276
8045
8260
8120
8200
8176
8121
8169
8072
8165
8101
8149
8186
8072
8243
8012
8293
7966
8283
7976
8249
8054
8215
8171
8162
8217
8077
8242
8069
8237
8099
8168
8141
8097
8224
8087
8267
8104
8276
8167
8199
8196
8101
8263
8019
8309
7994
8309
8010
8291
8080
8229
8156
8190
8234
8127
8204
8089
8125
8077
8054
8189
8046
8270
8022
8306
8036
8260
8086
8202
8153
8127
8220
8056
8277
8040
8285
8060
8270
8126
8212
8222
8160
8214
8087
8178
8086
8108
8127
8043
8204
7970
8202
7894
8262
7967
8248
7999
8153
8045
8100
8173
8158
8337
8226
8398
8306
8319
8258
8155
8247
8068
8250
8044
8229
8098
8177
8172
8125
8264
8070
8346
8058
8370
8068
8329
8090
8241
8147
8160
8172
8076
8158
8082
8147
8118
8092
8207
8052
8264
8009
8288
7999
8257
8042
8212
8121
8110
8163
8037
8230
8032
8283
8071
8239
8091
8154
8158
8127
8238
8097
8197
8076
8146
8138
8070
8216
8030
8310
7998
8337
8016
8317
8040
8222
8075
8112
8125
8097
8243
8129
8262
8138
8198
8215
8148
8289
8110
8302
8064
8268
8092
8216
8166
8153
8246
8072
8291
8023
8315
8018
8297
8070
8233
8132
8166
8175
8087
8173
8081
8146
8129
8088
8185
8025
8266
7993
8287
7981
8273
8046
8248
8123
8165
8188
8077
8231
8042
8247
8047
8205
8090
8150
8166
8103
8217
8068
8207
8078
8165
8144
8120
8227
8048
8305
7999
8334
8018
8331
8053
8255
8108
8172
8145
8083
8173
8051
8157
8086
8136
8144
8078
8217
8056
8298
8071
8309
8087
8248
8160
8170
8233
8101
8283
8030
8289
8022
8284
8069
8225
8126
8147
8148
8078
8170
8107
8192
8149
8115
8203
8051
8291
8032
8344
8021
8335
8046
8245
8094
8162
8153
8063
8165
7995
8154
8005
8171
8120
8176
8241
8213
8324
8127
8294
8130
8218
8135
8109
8181
8030
8263
8024
8355
8027
8324
8022
8240
8067
8176
8151
8124
8226
8149
8256
8139
8176
8184
8117
8305
8101
8305
8021
8275
8044
8241
8112
8160
8175
8061
8188
7946
8184
7935
8164
7974
8134
8058
8105
8158
8120
8243
8117
8195
8149
8160
8245
8109
8292
8003
8314
8029
8384
8075
8289
8060
8137
8113
8116
8211
8088
8231
8065
8181
8109
8155
8194
8121
8270
8112
8320
8161
8300
8197
8198
8225
8103
8304
8060
8358
8037
8335
8044
8277
8081
8189
8143
8112
8172
8060
8132
8051
8088
8106
8030
8180
7991
8251
7976
8282
8015
8273
8145
8259
8232
8154
8254
8064
8299
8096
8337
8122
8244
8124
8154
8193
8116
8207
8041
8092
8009
8036
8116
8013
8231
7994
8304
7985
8332
8028
8307
8124
8291
8211
8198
8241
8132
8260
8117
8222
8114
8120
8158
8073
8240
8047
8264
8050
8230
8116
8174
8183
8095
8246
8018
8290
7975
8283
8018
8254
8080
8222
8198
8193
8230
8134
8220
8138
8178
8193
8110
8256
8059
8324
8036
8325
8028
8286
8090
8203
8141
8103
8179
8034
8219
8014
8202
8020
8153
8097
8122
8153
8070
8192
8064
8192
8118
8159
8185
8085
8256
8049
8352
8043
8355
8004
8255
8018
8178
8070
8111
8151
8055
8156
8069
8177
8117
8142
8205
8096
8279
8078
8321
8099
8321
8173
8277
8223
8161
8285
8115
8359
8071
8328
8029
8251
8041
8168
8100
8108
8171
8090
8168
8081
8120
8120
8059
8222
8021
8241
7938
8256
7961
8253
8043
8243
8186
8209
8273
8176
8323
8102
8272
8120
8247
8122
8098
8140
8054
8214
8086
8238
8119
8189
8188
8131
8267
8049
8312
7992
8321
7999
8299
8060
8264
8157
8202
8206
8130
8227
8109
8197
8106
8087
8122
8011
8200
7986
8231
7998
8245
8051
8201
8139
8128
8211
8053
8256
8003
8267
8017
8254
8065
8173
8102
8097
8146
8075
8189
8119
8208
8219
8188
8323
8143
8386
8070
8367
8032
8333
8065
8271
8138
8179
8147
8035
8153
7992
8154
8028
8132
8092
8096
8171
8083
8258
8083
8267
8137
8232
8195
8175
8256
8063
8288
7994
8304
7986
8298
8052
8240
8094
8148
8141
8073
8155
8063
8159
8126
8134
8178
8050
8228
8018
8323
8042
8281
8035
8226
8134
8177
8225
8123
8297
8082
8331
8097
8314
8125
8203
8122
8107
8163
8077
8185
8076
8154
8125
8084
8193
8030
8305
8037
8375
8039
8348
8046
8265
8120
8197
8145
8069
8179
8046
8200
8089
8196
8148
8127
8218
8094
8292
8134
8367
8188
8308
8216
8199
8231
8062
8267
8024
8327
8025
8306
8034
8235
8095
8157
8117
8060
8126
8045
8136
8104
8120
8161
8046
8233
8005
8288
7992
8291
8034
8267
8129
8193
8182
8077
8215
8032
8244
8031
8220
8043
8146
8124
8126
8225
8127
8282
8171
8244
8172
8155
8211
8047
8263
7998
8329
7990
8310
8034
8295
8122
8216
8166
8139
8220
8110
8225
8103
8188
8151
8143
8225
8074
8249
8022
8237
8046
8241
8141
8170
8174
8038
8212
7964
8244
7970
8263
8012
8214
8075
8153
8134
8109
8180
8092
8192
8134
8161
8218
8105
8277
8028
8317
8028
8343
8043
8277
8095
8201
8166
8131
8222
8077
8286
8080
8239
8067
8149
8118
8083
8150
8041
8195
8049
8166
8071
8083
8136
8029
8236
7982
8303
8002
8344
8047
8310
8097
8227
8168
8194
8259
8146
8255
8135
8211
8187
8165
8269
8112
8323
8081
8328
8089
8299
8144
8222
8195
8121
8248
8048
8318
8036
8291
8030
8221
8075
8149
8130
8080
8143
8059
8147
8109
8178
8243
8159
8329
8082
8321
7983
8297
7968
8236
8023
8179
8088
8044
8059
7941
8100
7966
8141
8051
8130
8134
8118
8275
8190
8407
8235
8386
8267
8297
8280
8138
8259
8024
8322
8003
8319
8013
8272
8049
8200
8110
8116
8166
8090
8174
8093
8158
8135
8103
8203
8059
8278
8035
8305
8027
8237
8039
8178
8137
8110
8209
8047
8266
8018
8261
8033
8231
8117
8201
8166
8097
8166
8060
8152
8073
8133
8153
8080
8235
8017
8305
8012
8376
8059
8346
8084
8236
8126
8147
8170
8061
8181
8043
8174
8066
8148
8161
8129
8271
8120
8321
8110
8278
8141
8226
8184
8104
8214
8011
8263
7983
8296
7997
8272
8053
8231
8160
8183
8203
8123
8229
8143
8221
8185
8132
8226
8060
8275
8011
8306
8013
8285
8074
8221
8123
8137
8219
8108
8268
8050
8272
8057
8240
8092
8169
8159
8113
8187
8074
8194
8078
8140
8136
8078
8227
8056
8324
7984
8282
7939
8245
8009
8218
8083
8141
8157
8084
8196
8066
8189
8112
8202
8213
8125
8223
8038
8240
8029
8247
8080
8216
8177
8184
8286
8131
8344
8052
8337
8031
8284
8060
8214
8096
8149
8199
8131
8177
8050
8068
8049
8028
8126
7973
8201
7943
8238
7931
8237
8014
8225
8110
8173
8226
8167
8350
8185
8379
8163
8323
8203
8259
8254
8162
8279
8141
8294
8183
8262
8217
8174
8248
8029
8251
7950
8281
7955
8267
7972
8172
8018
8099
8101
8067
8188
8115
8244
8133
8189
8183
8108
8254
8092
8342
8097
8312
8088
8234
8141
8155
8205
8090
8300
8074
8334
8010
8211
7987
8135
8048
8088
8121
8080
8199
8123
8206
8183
8165
8253
8114
8323
8042
8349
8035
8347
8059
8258
8089
8162
8147
8066
8176
8026
8193
8023
8154
8062
8124
8164
8095
8192
8047
8218
8081
8227
8187
8198
8287
8155
8363
8037
8315
7969
8267
7965
8189
8032
8162
8176
8173
8211
8084
8148
8063
8102
8115
8062
8212
8040
8291
8027
8296
8051
8247
8139
8191
8209
8110
8263
8049
8301
8041
8273
8059
8212
8114
8146
8163
8098
8201
8096
8186
8145
8162
8263
8169
8352
8041
8313
7954
8270
7971
8240
8073
8203
8170
8144
8225
8085
8225
8068
8203
8120
8161
8191
8105
8251
8074
8274
8083
8222
8128
8159
8195
8069
8259
8009
8308
8002
8317
8034
8280
8091
8195
8112
8087
8132
8051
8148
8092
8121
8112
8025
8175
7988
8277
8036
8336
8061
8286
8109
8201
8178
8159
8306
8133
8322
8076
8304
8081
8217
8116
8150
8198
8119
8247
8118
8233
8166
8196
8247
8119
8291
8033
8325
8008
8332
8027
8286
8061
8188
8078
8062
8115
8028
8155
8046
8159
8097
8140
8240
8159
8298
8082
8278
8054
8233
8110
8169
8165
8090
8246
8042
8330
8029
8321
8036
8270
8068
8196
8157
8164
8211
8106
8194
8107
8134
8130
8066
8211
8019
8280
7997
8311
8035
8305
8125
8260
8165
8113
8182
8042
8238
8034
8219
8037
8162
8088
8122
8161
8091
8224
8082
8189
8082
8143
8178
8099
8259
8037
8335
8010
8335
7995
8268
8037
8206
8109
8131
8167
8093
8218
8089
8170
8117
8140
8203
8101
8304
8101
8342
8100
8297
8128
8206
8158
8119
8256
8100
8357
8062
8305
8019
8261
8063
8176
8121
8129
8186
8103
8194
8105
8148
8152
8083
8219
8035
8299
8012
8312
8002
8287
8062
8227
8142
8162
8186
8063
8224
8051
8261
8121
8273
8210
8206
8251
8134
8279
8108
8242
8125
8175
8165
8097
8226
8024
8301
7993
8321
8001
8292
8038
8214
8098
8152
8160
8086
8181
8069
8162
8106
8114
8169
8062
8242
8027
8289
8028
8259
8058
8203
8124
8110
8194
8044
8263
8032
8295
8048
8279
8098
8220
8166
8149
8209
8117
8226
8129
8193
8173
8110
8225
8038
8289
7984
8262
7906
8187
7930
8160
8050
8121
8141
8048
8188
8054
8239
8129
8279
8214
8195
8267
8138
8290
8097
8257
8123
8224
8187
8155
8264
8088
8340
8052
8354
8021
8318
8048
8239
8107
8176
8175
8118
8219
8131
8223
8173
8185
8249
8125
8280
8031
8285
7999
8268
8031
8199
8084
8113
8156
8042
8266
8087
8305
8008
8183
8014
8104
8050
8049
8116
8039
8139
8034
8112
8089
8059
8177
8018
8258
7992
8330
8019
8370
8120
8366
8194
8265
8239
8179
8291
8144
8283
8140
8250
8184
8153
8231
8095
8266
8067
8260
8072
8211
8125
8121
8173
8038
8254
7988
8265
7966
8273
8028
8247
8146
8227
8224
8200
8274
8140
8193
8111
8098
8131
8023
8218
8002
8280
7973
8260
8009
8228
8085
8183
8201
8121
8244
8055
8276
8063
8262
8096
8198
8148
8128
8201
8091
8222
8101
8215
8167
8158
8230
8076
8272
7979
8291
7963
8300
7991
8244
8054
8181
8140
8136
8215
8105
8239
8101
8173
8147
8140
8247
8101
8281
8049
8266
8048
8222
8098
8150
8172
8081
8253
8025
8299
8010
8295
8039
8246
8104
8190
8170
8129
8212
8132
8220
8162
8178
8216
8112
8299
8052
8325
8008
8315
8014
8254
8065
8178
8127
8093
8198
8068
8246
8060
8245
8098
8195
8151
8122
8211
8084
8222
8070
8189
8093
8126
8160
8048
8243
7998
8300
7985
8311
8002
8258
8062
8211
8159
8172
8212
8114
8214
8113
8195
8169
8127
8220
8067
8257
8008
8251
8020
8234
8089
8178
8159
8106
8235
8017
8228
7959
8227
7987
8199
8058
8160
8131
8101
8180
8094
8216
8188
8234
8234
8142
8305
8079
8358
8041
8362
8046
8325
8087
8251
8149
8152
8221
8103
8246
8077
8234
8085
8134
8113
8079
8177
8051
8203
8017
8179
8075
8162
8166
8103
8266
8074
8374
8090
8409
8070
8322
8066
8204
8105
8145
8187
8117
8215
8122
8186
8163
8132
8227
8075
8297
8044
8318
8046
8292
8124
8258
8193
8168
8240
8068
8268
8029
8271
8038
8224
8071
8145
8121
8086
8162
8063
8174
8086
8145
8161
8072
8218
8024
8305
7999
8332
8038
8354
8085
8252
8111
8134
8156
8062
8161
8009
8131
8020
8084
8072
8045
8168
8019
8203
8017
8220
8077
8198
8167
8131
8255
8083
8369
8103
8420
8126
8414
8186
8345
8226
8254
8248
8170
8255
8137
8180
8133
8102
8192
8059
8294
8030
8312
8019
8308
8066
8241
8119
8134
8176
8066
8228
7996
8186
7959
8121
8006
8084
8087
8061
8159
8059
8191
8070
8156
8132
8102
8218
8043
8298
7999
8330
8005
8328
8078
8305
8166
8227
8209
8156
8256
8142
8264
8149
8199
8181
8116
8239
8074
8277
8048
8263
8069
8211
8134
8135
8208
8050
8253
8005
8292
8013
8280
8034
8185
8045
8066
8061
7999
8091
8005
8078
8047
8037
8120
7992
8214
7990
8322
8032
8345
8069
8278
8157
8230
8230
8169
8311
8142
8331
8142
8298
8158
8221
8215
8147
8268
8117
8270
8117
8224
8177
8171
8268
8118
8347
8058
8373
8028
8335
8033
8259
8092
8195
8154
8108
8191
8085
8186
8106
8152
8142
8079
8198
8025
8251
8004
8252
8025
8194
8053
8117
8161
8053
8226
8016
8282
8013
8281
8071
8262
8148
8197
8197
8130
8225
8127
8216
8172
8158
8207
8061
8253
7993
8293
7972
8290
8002
8240
8069
8184
8155
8127
8212
8070
8224
8064
8192
8101
8151
8156
8084
8185
8030
8192
8023
8155
8064
8092
8147
8015
8229
7991
8312
8023
8372
8089
8334
8140
8258
8198
8168
8207
8110
8210
8119
8183
8189
8131
8271
8072
8306
8033
8318
8047
8262
8112
8202
8179
8113
8233
8045
8264
8023
8266
8052
8210
8095
8143
8151
8080
8174
8093
8213
8150
8160
8200
8088
8268
8015
8313
7990
8326
8014
8291
8078
8220
8141
8151
8210
8108
8244
8094
8233
8129
8166
8181
8092
8230
8045
8240
8051
8228
8112
8179
8176
8096
8240
8018
8292
7985
8288
8006
8253
8061
8199
8121
8129
8178
8098
8181
8112
8179
8170
8102
8218
8043
8278
7993
8298
8011
8267
8061
8200
8139
8122
8206
8062
8270
8056
8282
8072
8213
8115
8142
8161
8076
8196
8063
8179
8089
8150
8169
8115
8286
8083
8363
8042
8372
8031
8327
8076
8258
8154
8178
8197
8109
8212
8078
8171
8101
8135
8157
8088
8241
8059
8293
8086
8322
8152
8254
8204
8156
8246
8061
8287
8012
8294
8026
8280
8077
8219
8139
8161
8202
8128
8226
8128
8188
8161
8101
8208
8025
8268
7981
8289
7982
8258
8026
8217
8115
8140
8184
8077
8223
8032
8222
8045
8188
8106
8139
8165
8080
8198
8060
8217
8105
8205
8185
8148
8254
8058
8310
8007
8327
7998
8312
8054
8251
8116
8167
8153
8090
8189
8084
8183
8115
8149
8178
8086
8244
8047
8282
8028
8261
8059
8213
8130
8150
8206
8072
8273
8033
8301
8035
8279
8068
8211
8117
8129
8157
8089
8178
8100
8180
8154
8136
8236
8066
8294
8004
8317
7976
8257
7970
8182
8026
8133
8154
8117
8224
8067
8225
8085
8260
8218
8257
8288
8181
8331
8150
8320
8145
8251
8179
8163
8233
8065
8280
8008
8314
7987
8289
8015
8233
8077
8167
8147
8115
8203
8103
8192
8123
8132
8156
8059
8212
8002
8256
7984
8259
8044
8249
8118
8169
8184
8089
8245
8039
8285
8031
8268
8074
8209
8117
8141
8185
8099
8217
8107
8194
8151
8141
8207
8054
8253
7979
8277
7955
8272
7971
8231
8047
8165
8116
8111
8195
8078
8245
8126
8253
8160
8182
8221
8113
8280
8079
8283
8090
8221
8115
8132
8159
8035
8220
7975
8271
7977
8292
8033
8285
8126
8250
8223
8198
8260
8155
8245
8171
8188
8208
8100
8254
8036
8301
8014
8310
8032
8266
8083
8180
8143
8091
8211
8037
8243
8031
8236
8057
8186
8102
8116
8162
8071
8207
8081
8187
8126
8153
8198
8080
8273
8025
8333
7998
8331
8015
8278
8069
8210
8143
8159
8214
8118
8243
8114
8213
8144
8146
8204
8084
8254
8045
8278
8053
8240
8109
8176
8174
8110
8255
8048
8310
8014
8305
8029
8265
8087
8190
8130
8119
8185
8087
8186
8102
8144
8159
8079
8227
8028
8298
8004
8315
8010
8260
8047
8210
8157
8165
8232
8097
8263
8071
8263
8090
8216
8155
8166
8241
8120
8262
8099
8220
8121
8167
8170
8094
8247
8017
8306
7990
8313
8003
8274
8033
8207
8102
8142
8171
8087
8196
8084
8171
8131
8129
8196
8060
8246
8025
8259
8001
8221
8039
8171
8132
8117
8217
8049
8262
8005
8280
8023
8257
8076
8210
8192
8204
8288
8200
8276
8169
8216
8216
8151
8268
8054
8311
7999
8317
7983
8275
8029
8211
8106
8158
8181
8074
8194
8032
8191
8043
8157
8152
8201
8277
8119
8261
8081
8249
8120
8206
8171
8123
8242
8063
8332
8026
8320
7973
8250
8010
8201
8079
8140
8152
8088
8188
8097
8194
8148
8186
8272
8141
8328
8076
8321
8039
8276
8041
8207
8109
8126
8182
8054
8245
8022
8269
8028
8243
8079
8180
8124
8116
8168
8071
8190
8090
8171
8149
8115
8220
8052
8302
8002
8336
8012
8330
8055
8279
8129
8201
8195
8124
8221
8082
8235
8098
8188
8131
8106
8196
8064
8249
8049
8235
8069
8204
8136
8129
8199
8049
8259
7990
8297
7987
8280
8019
8214
8078
8161
8156
8098
8167
8087
8159
8116
8124
8183
8064
8259
8020
8298
8006
8283
8028
8229
8087
8159
8174
8110
8256
8070
8288
8074
8277
8135
8248
8194
8152
8231
8105
8226
8102
8198
8159
8143
8229
8070
8300
8016
8332
7994
8313
8010
8250
8075
8187
8150
8108
8198
8090
8208
8092
8167
8141
8115
8204
8071
8253
8038
8252
8054
8222
8114
8156
8202
8098
8277
8042
8321
8040
8328
8076
8284
8132
8211
8195
8146
8236
8126
8211
8155
8158
8204
8080
8254
8022
8312
8002
8303
8010
8256
8068
8188
8154
8116
8212
8055
8242
8048
8235
8076
8166
8140
8112
8199
8078
8226
8085
8212
8141
8166
8217
8096
8283
8028
8330
8003
8335
8023
8289
8078
8208
8152
8145
8205
8108
8213
8111
8185
8148
8125
8225
8066
8267
8035
8281
8044
8249
8102
8175
8167
8095
8228
8027
8280
8011
8288
8040
8229
8078
8146
8134
8107
8171
8087
8189
8122
8158
8187
8089
8252
8015
8311
7999
8317
8012
8270
8051
8194
8136
8149
8212
8077
8238
8067
8238
8103
8196
8180
8130
8229
8085
8274
8108
8253
8136
8192
8208
8114
8271
8044
8319
8000
8333
8037
8317
8094
8251
8163
8170
8202
8116
8213
8111
8181
8148
8117
8210
8044
8264
8016
8289
8024
8255
8047
8167
8108
8101
8197
8033
8252
8007
8251
8024
8225
8087
8177
8189
8165
8271
8145
8235
8135
8178
8183
8110
8253
8040
8307
7994
8328
8004
8291
8042
8220
8117
8160
8206
8117
8237
8085
8219
8098
8157
8154
8112
8235
8059
8231
8030
8209
8060
8155
8126
8079
8198
8004
8260
7980
8302
8022
8319
8101
8272
8175
8203
8213
8139
8228
8128
8193
8160
8119
8211
8037
8261
7998
8285
7988
8257
8029
8196
8100
8122
8177
8055
8231
8027
8252
8043
8211
8080
8157
8142
8104
8205
8080
8214
8105
8178
8160
8105
8223
8026
8286
7983
8311
7987
8300
8035
8244
8115
8181
8186
8114
8220
8094
8230
8119
8183
8182
8133
8259
8087
8300
8079
8275
8093
8228
8163
8156
8235
8077
8289
8019
8313
8021
8286
8049
8221
8119
8163
8175
8110
8186
8100
8171
8146
8117
8206
8064
8287
8017
8319
8009
8310
8046
8254
8116
8178
8190
8105
8241
8067
8268
8074
8245
8123
8187
8166
8116
8224
8080
8227
8093
8194
8152
8129
8224
8046
8284
7993
8317
7990
8309
8029
8251
8087
8176
8154
8109
8193
8086
8186
8095
8136
8138
8069
8200
8021
8252
8006
8235
8028
8195
8097
8139
8185
8057
8253
8029
8311
8040
8304
8088
8277
8175
8211
8219
8142
8228
8123
8213
8182
8169
8231
8080
8301
8049
8387
8083
8387
8090
8303
8126
8207
8187
8133
8238
8080
8237
8063
8208
8105
8151
8164
8093
8224
8057
8227
8067
8193
8128
8128
8201
8059
8278
8010
8313
7978
8295
8013
8250
8078
8185
8155
8120
8186
8087
8184
8112
8151
8175
8100
8231
8033
8272
8003
8264
8037
8244
8113
8171
8173
8087
8226
8019
8272
8012
8262
8045
8192
8097
8133
8159
8093
8182
8083
8173
8118
8132
8194
8060
8263
8016
8326
7996
8321
8017
8279
8095
8209
8163
8136
8211
8077
8227
8080
8206
8113
8153
8186
8099
8245
8065
8246
8061
8204
8114
8139
8171
8062
8253
8010
8303
7989
8299
8014
8257
8078
8199
8154
8151
8204
8118
8236
8156
8200
8205
8128
8265
8056
8302
8023
8317
8037
8244
8062
8168
8139
8090
8210
8037
8253
8037
8267
8068
8225
8154
8207
8255
8156
8277
8134
8237
8158
8167
8208
8086
8269
8031
8341
8008
8342
8017
8278
8054
8197
8131
8126
8182
8077
8212
8072
8178
8112
8131
8182
8083
8247
8041
8247
8043
8223
8098
8161
8167
8088
8238
8021
8292
7997
8288
8001
8246
8069
8199
8152
8146
8205
8130
8221
8139
8186
8202
8121
8261
8056
8305
8008
8321
8023
8274
8070
8205
8144
8131
8214
8066
8256
8053
8253
8064
8192
8106
8132
8173
8089
8211
8072
8199
8100
8150
8176
8077
8238
8025
8312
7992
8328
8013
8302
8065
8238
8146
8167
8198
8109
8221
8097
8206
8134
8147
8198
8084
8255
8050
8275
8046
8251
8102
8206
8159
8112
8230
8035
8271
8004
8290
8025
8264
8084
8209
8156
8143
8192
8100
8192
8113
8174
8178
8110
8248
8048
8304
8013
8341
8023
8290
8050
8220
8123
8136
8186
8068
8221
8039
8210
8049
8165
8102
8116
8167
8073
8224
8091
8272
8176
8234
8215
8138
8257
8040
8303
7983
