EMG
8180
7899
8126
7972
8035
8045
7973
8090
7951
8092
7969
8055
8027
7992
8089
7949
8127
7927
8138
7956
8095
8022
8014
8109
7927
8159
7877
8184
7871
8155
7910
8096
7979
8037
8040
7992
8082
7978
8059
8007
7991
8070
7940
8128
7884
8159
7866
8164
7898
8105
7963
8020
8039
7950
8119
7931
8148
7929
8112
7959
8046
8014
7983
8068
7957
8095
7967
8071
8017
8004
8103
7937
8174
7884
8204
7861
8188
7899
8141
7956
8043
8014
7983
8071
7959
8085
7970
8035
8021
7995
8092
7934
8138
7917
8145
7926
8099
7978
8014
8067
7935
8132
7885
8164
7872
8152
7915
8114
7988
8049
8036
7987
8061
7969
8052
7994
8006
8062
7944
8136
7895
8186
7866
8183
7884
8133
7948
8050
8029
7984
8109
7943
8123
7931
8103
7973
8050
8026
7983
8079
7951
8108
7950
8077
7995
8016
8082
7943
8153
7881
8189
7855
8190
7879
8144
7944
8071
8015
8010
8080
7977
8088
7989
8049
8032
7994
8101
7938
8149
7902
8170
7918
8132
7974
8067
8049
7977
8129
7911
8169
7895
8152
7919
8102
7981
8049
8039
7995
8084
7981
8079
8004
8034
8067
7961
8145
7897
8192
7869
8199
7881
8165
7937
8091
8013
8011
8085
7960
8114
7948
8101
7978
8046
8031
7983
8089
7943
8111
7931
8095
7984
8046
8052
7966
8133
7906
8204
7899
8223
7903
8169
7947
8087
8012
8023
8063
7978
8083
7990
8057
8034
7994
8095
7933
8148
7884
8171
7896
8150
7933
8080
8013
7993
8102
7937
8151
7913
8154
7933
8102
7972
8038
8032
7988
8079
7968
8081
7994
8051
8048
7978
8127
7905
8186
7865
8207
7877
8175
7914
8116
7995
8032
8064
7983
8111
7973
8095
7994
8049
8047
7986
8100
7944
8141
7934
8137
7963
8080
8025
7988
8112
7913
8166
7873
8175
7886
8151
7933
8094
7996
8030
8058
7994
8080
7988
8059
8028
8001
8099
7942
8163
7897
8203
7894
8173
7927
8113
7999
8028
8082
7965
8141
7932
8157
7951
8116
7994
8052
8043
7990
8088
7953
8097
7984
8068
8044
8000
8116
7919
8178
7872
8204
7868
8183
7910
8142
7985
8061
8057
8001
8093
7968
8086
7994
8049
8054
7993
8120
7945
8157
7924
8157
7953
8112
8018
8029
8102
7944
8162
7902
8186
7894
8160
7940
8105
8000
8042
8057
7991
8089
7991
8078
8032
8013
8096
7943
8163
7889
8189
7868
8182
7895
8133
7972
8066
8055
7994
8129
7954
8142
7958
8109
7996
8041
8052
7980
8087
7944
8108
7974
8111
8049
8054
8128
7954
8180
7889
8212
7875
8202
7909
8147
7971
8068
8047
8012
8088
7990
8095
8005
8052
8055
7992
8117
7936
8163
7907
8183
7932
8142
7993
8049
8065
7961
8139
7922
8190
7927
8168
7948
8109
8003
8043
8061
7998
8092
7990
8079
8024
8031
8090
7967
8170
7902
8219
7877
8210
7901
8164
7957
8090
8031
8008
8097
7967
8124
7967
8103
8001
8043
8066
7989
8114
7953
8130
7954
8114
8004
8045
8089
7962
8154
7898
8201
7875
8207
7905
8165
7977
8082
8031
8024
8077
7990
8087
8004
8057
8053
7997
8127
7938
8176
7901
8195
7913
8151
7962
8089
8046
8007
8131
7954
8178
7938
8161
7951
8108
8001
8036
8059
7988
8096
7979
8098
8009
8043
8076
7979
8165
7922
8210
7882
8218
7887
8179
7935
8109
8014
8035
8082
7980
8121
7987
8102
8005
8044
8072
7990
8124
7939
8142
7936
8134
7981
8082
8052
8003
8148
7941
8199
7903
8212
7913
8170
7956
8089
8019
8033
8076
7993
8091
8006
8066
8052
8008
8142
7951
8205
7904
8204
7898
8176
7943
8114
8018
8030
8107
7972
8151
7948
8146
7963
8109
8018
8057
8086
8010
8125
7982
8114
7998
8068
8058
7997
8143
7928
8207
7881
8229
7888
8202
7933
8138
8005
8058
8069
7999
8106
7989
8098
8016
8049
8079
7992
8138
7938
8183
7930
8163
7961
8102
8025
8004
8111
7942
8163
7908
8202
7914
8164
7968
8109
8032
8051
8075
8010
8103
8011
8076
8051
8016
8126
7954
8188
7895
8228
7895
8205
7934
8155
8012
8078
8087
7995
8135
7960
8126
7962
8099
8013
8042
8079
7990
8116
7959
8125
7982
8102
8047
8020
8120
7947
8192
7891
8219
7885
8199
7927
8154
7999
8074
8065
8015
8097
7992
8098
8025
8050
8077
7990
8147
7941
8193
7920
8186
7941
8133
8009
8050
8093
7977
8156
7928
8184
7926
8160
7964
8113
8033
8046
8082
7997
8099
7995
8086
8044
8026
8099
7953
8179
7902
8220
7872
8202
7906
8159
7981
8094
8052
8011
8112
7975
8123
7979
8101
8028
8045
8087
7992
8133
7948
8154
7960
8122
8019
8042
8108
7973
8178
7910
8210
7896
8208
7924
8170
7980
8085
8049
8029
8101
8005
8098
8033
8060
8083
8002
8140
7924
8178
7909
8203
7921
8153
7974
8080
8047
7996
8139
7951
8178
7939
8165
7984
8134
8069
8076
8109
8008
8122
7993
8103
8027
8045
8102
7977
8185
7914
8228
7897
8234
7917
8191
7974
8127
8043
8041
8099
7987
8120
7996
8108
8035
8048
8096
7996
8147
7949
8173
7953
8148
8001
8087
8096
8009
8168
7942
8212
7910
8224
7934
8176
7993
8101
8052
8039
8097
8006
8099
8019
8054
8063
7997
8149
7936
8198
7901
8220
7917
8198
7971
8120
8034
8027
8118
7973
8161
7959
8144
7980
8105
8035
8038
8088
7990
8124
7978
8115
8022
8071
8069
7990
8153
7918
8211
7887
8232
7890
8194
7946
8139
8028
8055
8093
8006
8115
8007
8106
8036
8047
8098
7990
8154
7944
8189
7934
8168
7974
8110
8047
8023
8129
7952
8198
7926
8207
7938
8176
7988
8100
8045
8035
8092
8000
8093
8007
8072
8061
8006
8146
7948
8206
7904
8239
7902
8204
7936
8132
8015
8061
8100
8000
8150
7969
8144
7987
8112
8055
8049
8104
7993
8139
7979
8155
8007
8108
8059
8019
8143
7947
8203
7894
8238
7890
8199
7939
8144
8008
8070
8081
8023
8125
8024
8106
8045
8057
8094
7988
8157
7930
8204
7927
8190
7948
8138
8026
8064
8123
7979
8176
7940
8194
7948
8170
7992
8123
8065
8060
8120
8017
8117
8014
8085
8056
8029
8137
7952
8197
7899
8235
7893
8214
7923
8161
7991
8091
8066
8016
8121
7983
8132
7996
8097
8040
8038
8116
7994
8163
7968
8170
7977
8128
8032
8045
8130
7977
8204
7919
8225
7914
8218
7945
8164
8011
8087
8080
8039
8114
8020
8104
8044
8065
8096
7989
8168
7931
8194
7908
8209
7940
8160
7993
8084
8083
8008
8150
7953
8173
7945
8151
7995
8104
8054
8049
8112
8004
8131
7991
8097
8035
8040
8116
7968
8188
7917
8250
7912
8256
7935
8197
7995
8128
8065
8045
8117
8012
8133
8012
8105
8054
8043
8119
7981
8156
7944
8180
7958
8153
8018
8073
8094
7992
8169
7932
8209
7912
8220
7943
8163
7995
8090
8066
8033
8101
8005
8101
8029
8059
8091
8003
8173
7942
8234
7907
8232
7930
8201
7990
8132
8084
8050
8155
7998
8188
7982
8161
8007
8112
8059
8051
8113
7992
8136
7979
8130
8018
8063
8094
7985
8165
7920
8225
7891
8237
7905
8187
7958
8123
8037
8053
8098
8008
8123
8019
8105
8058
8048
8116
7982
8168
7945
8207
7949
8186
8000
8128
8093
8043
8164
7970
8211
7944
8224
7957
8176
8009
8112
8078
8054
8119
8019
8119
8045
8095
8102
8013
8152
7932
8203
7887
8217
7894
8197
7952
8139
8033
8051
8104
7995
8152
7981
8143
8010
8105
8064
8049
8129
8004
8162
7979
8154
8008
8099
8084
8022
8169
7956
8229
7922
8258
7930
8214
7969
8152
8044
8079
8108
8040
8131
8034
8113
8064
8052
8108
7969
8163
7932
8211
7934
8196
7959
8131
8037
8050
8119
7979
8179
7938
8188
7948
8149
7995
8099
8069
8043
8121
8014
8133
8025
8096
8073
8026
8152
7952
8214
7912
8263
7917
8242
7967
8189
8036
8100
8101
8029
8155
8008
8151
8023
8104
8074
8042
8122
7976
8156
7953
8164
7980
8117
8041
8036
8124
7953
8197
7910
8219
7907
8205
7950
8148
8013
8068
8080
8027
8120
8016
8098
8057
8060
8124
7993
8196
7942
8240
7925
8229
7968
8185
8040
8114
8135
8040
8194
7992
8205
7983
8169
8015
8107
8085
8050
8117
7992
8129
7998
8097
8047
8035
8122
7954
8193
7903
8240
7894
8227
7931
8190
8004
8106
8072
8035
8118
7996
8122
8009
8097
8072
8029
8137
7988
8199
7968
8200
7979
8154
8036
8088
8129
8002
8203
7949
8233
7932
8237
7978
8178
8041
8100
8095
8047
8119
8023
8109
8048
8055
8108
7984
8178
7927
8232
7904
8215
7918
8178
7988
8105
8076
8023
8144
7975
8172
7972
8145
8017
8095
8073
8041
8131
7999
8167
8010
8149
8063
8096
8147
8009
8214
7944
8267
7917
8248
7930
8194
7990
8125
8067
8057
8129
8038
8155
8054
8114
8079
8032
8129
7968
8182
7930
8193
7940
8163
8001
8095
8091
8012
8168
7943
8200
7935
8203
7962
8154
8027
8087
8089
8036
8127
8026
8131
8056
8080
8119
8008
8195
7950
8236
7908
8237
7922
8214
7996
8145
8084
8065
8143
8001
8169
8003
8148
8025
8097
8080
8029
8133
7986
8156
7980
8142
8016
8088
8102
8004
8176
7939
8227
7904
8235
7919
8199
7981
8132
8051
8059
8106
8022
8116
8029
8090
8086
8053
8161
7990
8221
7953
8239
7961
8214
8007
8141
8083
8053
8161
7988
8213
7955
8203
7978
8152
8028
8091
8090
8039
8124
8010
8122
8035
8077
8090
8011
8174
7942
8228
7898
8250
7905
8215
7965
8157
8043
8066
8114
8017
8159
8006
8135
8030
8099
8092
8034
8149
7986
8188
7981
8183
8022
8126
8087
8034
8171
7970
8233
7940
8256
7948
8224
7998
8160
8062
8080
8112
8042
8129
8028
8093
8066
8029
8127
7962
8196
7925
8231
7930
8216
7978
8161
8047
8077
8125
7990
8176
7959
8174
7975
8140
8026
8089
8094
8034
8134
8014
8153
8026
8114
8095
8044
8172
7971
8242
7930
8276
7931
8239
7959
8178
8029
8089
8094
8032
8133
8015
8130
8039
8090
8088
8029
8155
7976
8212
7977
8212
8003
8146
8061
8044
8137
7978
8201
7931
8229
7940
8207
7979
8151
8042
8080
8109
8042
8130
8034
8106
8069
8055
8149
7986
8218
7937
8252
7919
8231
7965
8191
8031
8112
8122
8028
8179
8000
8195
7999
8144
8035
8083
8094
8033
8146
8003
8161
8011
8131
8069
8058
8148
7980
8217
7920
8256
7907
8233
7945
8179
8011
8120
8089
8048
8128
8025
8131
8049
8092
8096
8030
8159
7970
8225
7952
8209
7984
8166
8033
8098
8130
8008
8200
7963
8227
7965
8212
7992
8160
8048
8083
8101
8020
8119
8011
8106
8057
8060
8142
7989
8210
7925
8248
7914
8241
7944
8201
8011
8128
8101
8051
8150
7996
8170
7997
8131
8037
8075
8096
8025
8151
7990
8183
8002
8146
8054
8094
8146
8010
8218
7944
8252
7928
8261
7954
8202
8012
8129
8082
8057
8125
8029
8137
8054
8094
8097
8020
8144
7953
8216
7930
8218
7949
8186
8015
8114
8102
8032
8175
7975
8206
7961
8191
7993
8153
8053
8084
8115
8042
8144
8037
8148
8069
8083
8135
8008
8201
7944
8258
7916
8265
7932
8210
7994
8154
8077
8075
8144
8026
8171
8019
8136
8052
8076
8099
8016
8157
7981
8193
7991
8168
8026
8105
8110
8011
8179
7946
8225
7922
8251
7950
8198
8005
8142
8080
8068
8119
8033
8132
8049
8094
8097
8032
8171
7968
8236
7939
8241
7948
8218
8012
8169
8106
8088
8166
8003
8198
7980
8197
8004
8147
8059
8084
8110
8033
8142
8007
8146
8039
8101
8118
8023
8193
7948
8225
7897
8251
7909
8216
7972
8158
8047
8081
8126
8032
8153
8031
8143
8064
8082
8105
8013
8165
7967
8198
7962
8194
8015
8141
8101
8065
8182
7993
8236
7946
8249
7957
8199
8003
8142
8066
8077
8132
8040
8133
8037
8101
8088
8039
8164
7970
8232
7933
8263
7938
8234
7974
8169
8044
8084
8119
8009
8174
7984
8171
7998
8140
8059
8080
8116
8028
8162
8006
8164
8035
8136
8108
8049
8182
7987
8249
7941
8280
7931
8243
7978
8181
8045
8103
8113
8050
8144
8036
8125
8055
8077
8113
8016
8180
7964
8214
7947
8214
7997
8169
8077
8088
8152
7991
8198
7955
8218
7951
8194
8000
8127
8066
8078
8124
8034
8133
8038
8109
8077
8054
8165
7985
8230
7940
8278
7932
8257
7963
8197
8043
8125
8131
8052
8175
8013
8182
8014
8135
8066
8079
8122
8014
8166
7991
8175
8012
8151
8085
8080
8163
7993
8222
7933
8257
7920
8231
7955
8180
8024
8122
8100
8064
8141
8043
8132
8063
8090
8126
8024
8198
7973
8249
7955
8231
7981
8186
8038
8110
8130
8022
8197
7980
8214
7978
8207
8019
8152
8086
8081
8126
8035
8144
8026
8112
8061
8057
8141
7989
8215
7935
8269
7918
8252
7950
8209
8013
8135
8102
8059
8155
8013
8154
8015
8122
8061
8063
8126
8010
8178
7987
8199
7996
8166
8055
8101
8141
8015
8221
7957
8248
7934
8245
7966
8198
8038
8140
8100
8068
8135
8029
8118
8053
8078
8100
8007
8175
7949
8244
7936
8239
7956
8200
8014
8126
8107
8044
8176
7999
8207
7990
8179
8018
8138
8076
8071
8129
8033
8160
8031
8161
8069
8098
8144
8024
8225
7958
8270
7927
8280
7952
8226
8004
8154
8084
8082
8149
8040
8163
8028
8117
8063
8054
8118
7999
8179
7966
8203
7973
8177
8020
8113
8106
8022
8193
7965
8229
7943
8239
7969
8203
8024
8124
8089
8065
8134
8041
8125
8057
8091
8110
8031
8188
7971
8261
7945
8273
7954
8234
8000
8146
8083
8092
8179
8042
8220
8017
8202
8039
8141
8080
8064
8119
8005
8156
7993
8144
8034
8094
8111
8018
8187
7944
8244
7916
8264
7938
8232
7996
8163
8057
8082
8119
8038
8136
8039
8129
8075
8073
8137
8004
8204
7966
8226
7966
8209
8020
8152
8091
8077
8199
8019
8250
7983
8248
7974
8195
8028
8128
8092
8072
8140
8037
8133
8042
8093
8096
8037
8177
7972
8237
7928
8269
7932
8236
7980
8175
8055
8098
8134
8019
8182
8013
8175
8037
8128
8089
8067
8147
8019
8189
8001
8179
8029
8139
8114
8062
8193
7983
8250
7945
8273
7947
8235
7989
8175
8058
8108
8116
8055
8140
8040
8124
8078
8070
8135
8006
8216
7956
8241
7944
8220
7990
8169
8071
8083
8147
8004
8203
7968
8219
7975
8191
8028
8123
8093
8073
8147
8043
8154
8053
8132
8113
8063
8177
7990
8244
7940
8285
7933
8253
7972
8206
8056
8128
8125
8055
8171
8028
8162
8037
8120
8084
8065
8153
8011
8195
7981
8197
8012
8152
8080
8081
8163
7990
8218
7944
8257
7939
8229
7978
8184
8048
8100
8102
8055
8146
8058
8139
8082
8080
8155
8011
8219
7971
8255
7938
8241
7970
8191
8037
8110
8130
8037
8192
8000
8211
7995
8201
8044
8144
8102
8064
8136
8012
8146
8021
8131
8076
8076
8163
7997
8235
7940
8268
7917
8271
7957
8203
8025
8141
8109
8063
8148
8028
8153
8045
8121
8094
8058
8155
8008
8227
7986
8223
8001
8188
8058
8112
8136
8022
8212
7973
8255
7973
8266
8002
8192
8048
8111
8104
8059
8134
8040
8129
8063
8079
8131
8009
8201
7949
8254
7928
8251
7958
8217
8022
8142
8113
8060
8167
8005
8199
7999
8166
8023
8104
8089
8064
8167
8037
8199
8028
8165
8070
8108
8150
8022
8230
7957
8280
7935
8275
7957
8221
8011
8150
8092
8082
8154
8037
8146
8055
8124
8093
8052
8154
8000
8223
7970
8232
7973
8193
8024
8123
8113
8040
8187
7983
8239
7972
8247
7986
8187
8042
8112
8101
8052
8143
8042
8140
8068
8097
8134
8031
8210
7968
8272
7935
8284
7959
8236
8010
8170
8093
8091
8156
8020
8183
8019
8168
8048
8116
8104
8056
8159
8019
8195
8012
8181
8045
8122
8133
8028
8193
7956
8242
7924
8260
7954
8228
8012
8165
8081
8086
8130
8051
8148
8053
8113
8092
8061
8175
8000
8236
7962
8263
7971
8233
8021
8162
8098
8078
8170
8005
8225
7982
8236
7999
8186
8047
8111
8101
8050
8144
8030
8143
8054
8114
8124
8039
8199
7971
8246
7930
8279
7933
8233
7983
8177
8055
8101
8138
8043
8171
8026
8161
8062
8116
8104
8048
8166
8002
8219
8013
8207
8040
8148
8113
8073
8192
7991
8251
7951
8273
7965
8234
8011
8174
8072
8093
8123
8048
8142
8047
8116
8101
8069
8177
8002
8226
7944
8262
7944
8229
7986
8166
8060
8088
8149
8024
8208
7989
8213
8013
8176
8057
8113
8123
8056
8157
8020
8162
8045
8134
8116
8060
8198
7986
8251
7941
8283
7932
8258
7993
8205
8060
8136
8134
8060
8168
8035
8151
8058
8113
8124
8057
8184
7993
8208
7971
8207
8003
8160
8087
8086
8159
7995
8225
7962
8267
7967
8231
8003
8180
8076
8109
8139
8066
8154
8060
8131
8088
8067
8166
8006
8230
7949
8274
7944
8266
7997
8216
8052
8130
8137
8048
8191
8010
8207
8015
8165
8050
8094
8104
8039
8159
8011
8175
8027
8142
8093
8070
8173
7997
8239
7937
8278
7930
8263
7968
8205
8039
8137
8119
8071
8163
8053
8160
8068
8110
8117
8045
8185
7990
8240
7982
8243
8007
8189
8075
8116
8154
8032
8218
7981
8248
7970
8233
8010
8170
8071
8097
8117
8049
8144
8044
8125
8075
8072
8159
8003
8223
7950
8278
7940
8259
7964
8212
8028
8140
8113
8058
8169
8023
8196
8025
8160
8062
8097
8121
8049
8176
8017
8204
8025
8174
8092
8117
8165
8024
8229
7957
8280
7946
8273
7968
8210
8026
8148
8101
8078
8142
8046
8150
8066
8103
8104
8032
8183
7979
8234
7957
8241
7981
8205
8036
8128
8119
8046
8189
7990
8221
7971
8224
8010
8169
8064
8095
8129
8050
8158
8045
8152
8075
8091
8156
8027
8239
7978
8297
7958
8296
7970
8239
8014
8157
8095
8079
8165
8028
8191
8047
8170
8082
8099
8124
8030
8177
8003
8206
7998
8172
8037
8108
8131
8020
8207
7974
8266
7954
8271
7971
8216
8025
8143
8085
8082
8140
8051
8149
8068
8116
8124
8053
8200
7993
8259
7966
8278
7988
8244
8033
8162
8109
8080
8182
8013
8217
7991
8215
8017
8159
8079
8102
8137
8051
8171
8036
8161
8062
8106
8136
8025
8210
7963
8273
7929
8282
7939
8226
7994
8178
8068
8103
8143
8046
8172
8039
8145
8085
8104
8143
8040
8210
8004
8224
7997
8205
8035
8149
8133
8078
8209
8005
8255
7964
8263
7971
8214
8023
8152
8083
8078
8138
8051
8138
8054
8109
8110
8050
8188
7986
8253
7949
8278
7961
8238
7999
8172
8084
8096
8158
8029
8208
8004
8203
8026
8156
8084
8099
8135
8046
8190
8033
8185
8058
8134
8129
8054
8202
7987
8269
7953
8293
7956
8257
7996
8184
8062
8115
8135
8060
8158
8049
8151
8071
8076
8125
8020
8200
7981
8230
7970
8216
8012
8160
8094
8079
8168
8009
8239
7980
8265
7989
8223
8032
8163
8090
8089
8134
8054
8157
8064
8139
8110
8068
8195
8009
8271
7969
8298
7959
8268
8004
8201
8058
8119
8140
8045
8187
8011
8192
8028
8143
8077
8085
8135
8024
8169
8003
8186
8024
8135
8092
8059
8174
7991
8243
7941
8274
7937
8249
7998
8213
8074
8143
8138
8066
8159
8065
8164
8095
8104
8154
8037
8219
7986
8262
7970
8240
8002
8196
8081
8112
8161
8036
8220
7985
8231
7979
8210
8022
8143
8083
8081
8137
8036
8153
8050
8136
8096
8075
8174
7997
8235
7944
8276
7932
8262
7971
8215
8040
8137
8120
8067
8179
8032
8173
8045
8151
8097
8094
8162
8039
8211
8012
8214
8032
8179
8104
8109
8179
8026
8237
7970
8289
7961
8270
7988
8202
8046
8137
8112
8067
8142
8051
8137
8078
8095
8147
8037
8214
7973
8263
7953
8252
7981
8214
8047
8135
8130
8055
8198
7998
8227
7996
8203
8030
8149
8093
8087
8153
8040
8182
8054
8169
8108
8107
8174
8022
8241
7969
8291
7944
8288
7965
8228
8027
8152
8109
8087
8171
8047
8174
8057
8138
8087
8076
8147
8012
8185
7977
8217
7997
8191
8054
8124
8151
8035
8216
7969
8243
7941
8250
7973
8204
8046
8143
8107
8083
8152
8061
8152
8085
8117
8158
8047
8224
7994
8284
7959
8282
7978
8235
8027
8159
8109
8080
8173
8017
8206
8006
8191
8043
8149
8110
8088
8149
8035
8185
8030
8161
8060
8100
8140
8026
8219
7960
8272
7926
8281
7960
8234
8016
8167
8079
8083
8148
8052
8162
8057
8142
8100
8085
8173
8032
8242
7996
8245
8002
8226
8053
8159
8128
8079
8214
8009
8253
7972
8250
7984
8195
8037
8127
8105
8071
8139
8045
8153
8081
8135
8143
8052
8201
7982
8269
7943
8290
7951
8246
8009
8187
8093
8105
8164
8046
8206
8023
8184
8048
8140
8109
8084
8167
8037
8204
8025
8199
8063
8149
8137
8057
8214
7992
8266
7949
8284
7957
8250
8005
8191
8072
8104
8129
8057
8149
8048
8124
8085
8079
8163
8018
8226
7968
8256
7968
8232
8014
8171
8098
8087
8167
8013
8232
7985
8248
7997
8214
8055
8143
8115
8083
8151
8049
8173
8066
8135
8126
8070
8214
8011
8287
7970
8302
7950
8259
7986
8194
8052
8121
8135
8052
8190
8037
8176
8047
8128
8104
8071
8165
8016
8208
8002
8201
8019
8158
8106
8078
8186
8007
8251
7964
8286
7965
8263
8007
8187
8069
8115
8132
8071
8158
8060
8138
8102
8096
8181
8033
8238
7973
8280
7978
8264
7997
8201
8076
8118
8156
8039
8213
7997
8225
8001
8193
8044
8129
8104
8071
8149
8032
8167
8040
8137
8102
8065
8185
7996
8248
7945
8292
7946
8294
7991
8222
8058
8142
8124
8067
8178
8050
8169
8060
8129
8110
8072
8189
8030
8241
8005
8232
8033
8190
8095
8112
8170
8028
8241
7979
8273
7963
8257
7997
8196
8068
8123
8133
8078
8154
8062
8130
8088
8092
8150
8006
8213
7959
8267
7939
8258
7977
8217
8045
8139
8126
8062
8208
8037
8239
8036
8204
8066
8135
8113
8082
8178
8044
8204
8053
8178
8108
8111
8170
8015
8251
7961
8295
7946
8286
7975
8229
8037
8147
8098
8071
8152
8047
8159
8053
8124
8107
8056
8172
8005
8238
7979
8233
7989
8193
8051
8131
8143
8044
8216
7993
8256
7973
8251
8005
8193
8067
8120
8125
8073
8162
8065
8172
8102
8123
8171
8038
8233
7980
8290
7961
8296
7977
8248
8044
8168
8114
8086
8182
8035
8210
8026
8174
8060
8118
8117
8062
8172
8024
8204
8018
8178
8072
8122
8154
8024
8212
7960
8279
7947
8286
7976
8236
8023
8158
8093
8083
8154
8060
8169
8077
8140
8124
8075
8196
8011
8258
7985
8280
8003
8234
8046
8163
8129
8082
8206
8009
8241
7989
8246
8008
8181
8058
8114
8119
8062
8158
8042
8160
8072
8117
8143
8037
8214
7969
8272
7940
8284
7958
8240
8002
8179
8084
8101
8157
8044
8193
8038
8178
8069
8127
8134
8069
8199
8025
8230
8022
8214
8067
8152
8145
8074
8221
8001
8270
7963
8281
7967
8239
8018
8170
8080
8093
8131
8054
8152
8061
8130
8112
8065
8178
8002
8250
7966
8274
7967
8235
8004
8187
8103
8108
8181
8026
8224
7994
8223
8016
8187
8068
8123
8132
8070
8178
8052
8183
8072
8146
8136
8066
8210
7990
8284
7961
8312
7965
8281
8000
8201
8063
8115
8132
8048
8164
8027
8149
8057
8106
8118
8054
8193
8001
8233
8006
8237
8049
8183
8111
8089
8185
7999
8245
7958
8263
7970
8234
8013
8178
8086
8112
8146
8071
8162
8074
8142
8111
8093
8195
8027
8266
7979
8294
7961
8268
7999
8209
8079
8132
8153
8048
8201
8011
8210
8019
8172
8076
8113
8133
8066
8184
8041
8193
8041
8150
8114
8084
8185
8001
8249
7950
8288
7938
8270
7985
8208
8052
8143
8133
8075
8174
8060
8164
8083
8131
8146
8071
8212
8020
8259
7996
8246
8013
8201
8096
8120
8171
8034
8225
7985
8250
7971
8237
8011
8171
8071
8097
8129
8062
8159
8057
8147
8102
8091
8171
8019
8242
7961
8285
7949
8286
7977
8217
8044
8148
8127
8068
8183
8033
8212
8039
8180
8079
8116
8141
8065
8191
8024
8213
8042
8184
8098
8110
8172
8023
8252
7969
8294
7956
8288
7981
8223
8047
8149
8110
8099
8184
8079
8165
8076
8116
8130
8046
8195
7984
8249
7964
8251
7995
8216
8066
8140
8139
8056
8205
8002
8242
7991
8237
8026
8189
8086
8116
8148
8077
8176
8061
8172
8098
8122
8177
8038
8244
7982
8303
7955
8296
7970
8238
8027
8167
8105
8095
8172
8032
8186
8032
8156
8081
8106
8141
8051
8204
8016
8221
8020
8189
8063
8126
8145
8036
8219
7979
8277
7961
8278
7978
8227
8031
8158
8100
8095
8158
8075
8166
8091
8142
8154
8074
8219
8006
8268
7968
8278
7973
8226
8020
8161
8115
8097
8209
8049
8247
8001
8210
8014
8158
8073
8100
8136
8052
8169
8041
8175
8078
8128
8150
8046
8219
7975
8284
7947
8295
7962
8250
8011
8184
8094
8110
8154
8056
8182
8057
8168
8097
8116
8151
8053
8212
8006
8236
8001
8222
8054
8161
8137
8084
8216
8005
8257
7980
8284
7988
8223
8034
8164
8094
8095
8139
8054
8150
8066
8119
8108
8054
8188
7995
8261
7956
8286
7963
8257
8007
8185
8090
8112
8165
8039
8222
8019
8222
8043
8192
8102
8118
8155
8064
8206
8050
8206
8076
8154
8131
8068
8207
7990
8272
7960
8305
7972
8288
8017
8202
8073
8119
8130
8056
8155
8041
8146
8079
8107
8148
8045
8216
7990
8250
7983
8230
8021
8173
8100
8099
8176
8011
8238
7981
8262
7987
8228
8034
8175
8104
8107
8158
8070
8183
8080
8174
8144
8101
8213
8026
8264
7962
8306
7969
8275
7996
8216
8083
8141
8154
8060
8194
8024
8191
8029
8150
8081
8095
8151
8047
8205
8021
8208
8051
8166
8115
8098
8186
7999
8252
7961
8291
7955
8277
7997
8209
8060
8134
8119
8072
8159
8063
8155
8095
8120
8174
8059
8236
8014
8278
7980
8255
8004
8204
8079
8130
8156
8039
8214
7993
8241
7983
8217
8023
8149
8088
8097
8159
8071
8199
8070
8162
8097
8084
8177
8012
8251
7959
8293
7954
8289
7980
8231
8049
8159
8129
8082
8179
8043
8195
8056
8158
8101
8111
8176
8050
8237
8030
8239
8037
8193
8101
8124
8173
8038
8249
7987
8292
7965
8275
7986
8208
8045
8149
8117
8080
8151
8060
8144
8079
8107
8151
8042
8218
7984
8273
7958
8267
7986
8220
8042
8151
8133
8060
8201
8012
8230
8010
8229
8048
8160
8111
8105
8166
8054
8194
8053
8176
8107
8126
8178
8047
8250
7987
8301
7950
8301
7979
8247
8033
8172
8105
8090
8158
8042
8170
8058
8145
8101
8096
8159
8033
8229
7991
8238
8008
8208
8055
8133
8146
8053
8222
7990
8267
7975
8271
8001
8221
8053
8158
8130
8103
8170
8075
8163
8094
8125
8155
8058
8222
7998
8282
7954
8287
7971
8249
8032
8174
8114
8098
8176
8026
8216
8009
8207
8046
8147
8098
8087
8155
8043
8202
8041
8184
8070
8128
8152
8048
8226
7980
8289
7968
8310
7980
8259
8020
8187
8093
8121
8159
8075
8188
8074
8158
8113
8099
8179
8035
8243
8000
8273
8005
8236
8045
8174
8135
8093
8205
8006
8246
7973
8254
7983
8206
8048
8139
8108
8081
8154
8053
8174
8073
8130
8146
8057
8212
7993
8276
7951
8287
7960
8263
8013
8191
8092
8113
8165
8056
8210
8030
8207
8063
8164
8117
8098
8172
8051
8218
8041
8209
8063
8170
8152
8098
8222
8008
8277
7953
8283
7954
8245
8013
8193
8079
8114
8133
8065
8164
8061
8140
8096
8089
8168
8022
8241
7985
8265
7972
8249
8030
8209
8114
8112
8178
8022
8225
7995
8247
8002
8215
8059
8161
8126
8104
8174
8070
8194
8083
8156
8145
8091
8214
8008
8278
7960
8299
7944
8258
7993
8209
8065
8138
8148
8062
8186
8040
8178
8060
8138
8111
8081
8170
8035
8226
8017
8225
8036
8168
8109
8100
8193
8011
8256
7970
8284
7967
8267
8010
8195
8069
8122
8132
8079
8163
8076
8152
8103
8110
8186
8044
8264
7990
8286
7968
8269
8008
8212
8089
8154
8178
8068
8233
8009
8226
8002
8201
8049
8132
8102
8069
8152
8040
8183
8053
8159
8115
8097
8183
8010
8244
7962
8300
7946
8295
7986
8222
8050
8163
8139
8089
8184
8062
8196
8069
8149
8129
8099
8204
8043
8257
8019
8250
8037
8210
8101
8135
8187
8048
8243
7981
8269
7958
8254
7991
8182
8052
8115
8117
8073
8165
8062
8149
8096
8101
8163
8035
8229
7980
8290
7963
8295
7988
8236
8053
8164
8139
8089
8205
8035
8222
8022
8191
8063
8144
8127
8087
8183
8045
8211
8057
8186
8095
8121
8178
8036
8244
7984
8306
7967
8304
7978
8236
8029
8159
8084
8078
8151
8046
8159
8059
8126
8101
8071
8182
8017
8250
7994
8279
8032
8252
8077
8151
8137
8056
8209
7998
8257
7984
8260
8015
8209
8074
8140
8136
8086
8177
8080
8191
8101
8140
8172
8062
8237
7989
8295
7959
8306
7967
8244
8019
8182
8113
8107
8174
8042
8200
8035
8178
8065
8134
8118
8068
8178
8033
8221
8033
8202
8070
8139
8141
8054
8228
7993
8288
7961
8299
7982
8257
8032
8184
8088
8111
8155
8069
8174
8082
8150
8126
8091
8202
8024
8263
7985
8286
7994
8243
8034
8172
8115
8106
8196
8021
8241
7995
8245
8012
8197
8060
8129
8125
8074
8167
8052
8181
8076
8139
8145
8058
8213
7991
8282
7951
8303
7959
8264
8003
8198
8072
8123
8150
8061
8188
8048
8185
8091
8147
8145
8089
8209
8040
8248
8018
8226
8051
8172
8128
8097
8208
8023
8268
7975
8287
7961
8233
8003
8176
8072
8098
8132
8069
8161
8071
8147
8116
8088
8185
8017
8236
7962
8275
7966
8261
8008
8193
8082
8121
8168
8049
8224
8007
8224
8020
8195
8077
8143
8141
8088
8189
8064
8210
8081
8175
8141
8097
8205
8016
8275
7972
8313
7963
8290
8002
8214
8054
8138
8130
8065
8169
8048
8161
8075
8128
8136
8075
8206
8025
8256
8002
8245
8033
8193
8098
8112
8170
8025
8236
7969
8276
7976
8253
8012
8196
8080
8123
8147
8103
8220
8103
8191
8126
8114
8186
8036
8250
7974
8297
7968
8291
7997
8238
8059
8152
8141
8067
8198
8019
8211
8019
8176
8070
8118
8134
8069
8175
8028
8204
8044
8174
8101
8114
8174
8024
8246
7970
8299
7953
8289
7987
8228
8048
8156
8127
8096
8180
8071
8179
8098
8151
8161
8083
8213
8028
8266
7984
8254
8005
8219
8079
8151
8157
8054
8223
8001
8249
7985
8245
8011
8184
8074
8121
8130
8069
8175
8062
8168
8088
8102
8169
8039
8235
7976
8290
7948
8291
7966
8240
8035
8176
8123
8109
8191
8053
8220
8054
8184
8086
8124
8149
8083
8226
8046
8232
8034
8202
8096
8132
8164
8049
8236
7986
8288
7961
8288
7979
8234
8035
8172
8101
8093
8148
8066
8156
8080
8136
8129
8069
8202
8004
8262
7967
8267
7984
8236
8040
8179
8131
8089
8198
8025
8249
8005
8256
8027
8195
8092
8131
8150
8087
8186
8063
8189
8100
8145
8168
8061
8233
7992
8301
7950
8300
7962
8256
8013
8184
8100
8108
8152
8045
8190
8054
8167
8078
8119
8139
8053
8203
8014
8234
8012
8210
8052
8157
8141
8097
8227
8012
8267
7964
8283
7982
8241
8034
8188
8106
8112
8158
8078
8175
8090
8166
8149
8089
8214
8029
8281
7979
8299
7972
8259
8026
8199
8099
8106
8172
8046
8218
8008
8223
8024
8172
8074
8114
8146
8074
8201
8050
8194
8071
8152
8141
8088
8228
8020
8293
7968
8306
7948
8251
7991
8199
8066
8133
8153
8088
8198
8074
8181
8099
8139
8160
8061
8213
8007
8250
7985
8236
8037
8189
8110
8112
8196
8030
8250
7979
8278
7991
8249
8030
8181
8096
8114
8150
8072
8169
8070
8131
8110
8083
8192
8015
8251
7970
8294
7968
8285
7998
8225
8081
8147
8155
8068
8207
8032
8215
8046
8196
8094
8126
8162
8074
8224
8048
8218
8060
8186
8126
8107
8197
8025
8265
7969
8295
7952
8282
7990
8219
8050
8142
8116
8082
8177
8068
8170
8105
8124
8139
8057
8207
7994
8257
7976
8253
8004
8208
8079
8136
8163
8061
8231
8006
8252
8004
8256
8040
8196
8104
8134
8182
8097
8209
8089
8187
8130
8128
8191
8029
8239
7969
8294
7947
8290
7978
8235
8037
8159
8115
8076
8171
8034
8197
8044
8168
8088
8109
8149
8056
8218
8020
8215
8026
8187
8087
8123
8167
8047
8244
7984
8291
7963
8282
7991
8232
8049
8161
8122
8107
8181
8087
8175
8104
8138
8165
8079
8230
8010
8276
7983
8288
8002
8253
8053
8173
8138
8087
8188
7999
8216
7990
8224
8024
8182
8101
8125
8156
8070
8201
8063
8185
8084
8116
8152
8053
8246
7992
8300
7955
8297
7968
8253
8019
8186
8109
8125
8172
8070
8200
8072
8179
8103
8120
8171
8066
8242
8029
8266
8026
8233
8080
8163
8149
8091
8234
8011
8270
7965
8273
7984
8230
8040
8160
8093
8085
8147
8068
8161
8077
8129
8134
8066
8209
8005
8273
7965
8292
7975
8257
8023
8192
8106
8117
8179
8049
8234
8029
8238
8044
8188
8100
8111
8164
8073
8218
8056
8211
8082
8155
8146
8073
8222
7995
8282
7957
8304
7962
8267
8011
8204
8079
8127
8137
8071
8184
8066
8173
8101
8114
8167
8054
8226
8004
8264
7996
8239
8033
8182
8112
8112
8195
8029
8252
7990
8274
7990
8244
8042
8175
8114
8119
8173
8091
8204
8101
8173
8149
8088
8202
8011
8274
7962
8300
7955
8268
7993
8212
8064
8123
8143
8055
8203
8039
8208
8044
8164
8102
8105
8155
8052
8209
8031
8214
8056
8176
8122
8094
8190
8014
8268
7967
8298
7963
8281
8010
8218
8078
8158
8151
8096
8187
8084
8173
8106
8125
8173
8061
8255
8007
8282
7992
8268
8027
8223
8100
8135
8163
8038
8219
7993
8248
8001
8236
8039
8175
8105
8104
8151
8063
8188
8072
8170
8123
8109
8191
8028
8259
7970
8299
7948
8296
7989
8234
8051
8162
8136
8091
8195
8066
8222
8074
8186
8116
8114
8184
8054
8227
8018
8232
8039
8197
8109
8138
8189
8045
8255
7990
8297
7982
8293
7997
8212
8038
8139
8108
8080
8157
8067
8154
8083
8106
8150
8055
8232
8001
8283
7970
8280
7993
8238
8049
8145
8135
8068
8203
8021
8237
8019
8244
8063
8191
8129
8118
8176
8072
8205
8064
8181
8110
8125
8175
8038
8247
7977
8304
7962
8305
7972
8245
8026
8171
8112
8095
8168
8055
8185
8059
8157
8104
8103
8181
8045
8240
8009
8250
8018
8216
8059
8147
8147
8073
8221
7997
8272
7982
8280
8010
8238
8075
8177
8133
8108
8172
8079
8187
8103
8146
8163
8068
8232
8001
8290
7977
8306
7983
8249
8026
8181
8109
8103
8181
8040
8219
8015
8208
8052
8158
8108
8099
8165
8050
8200
8042
8193
8079
8138
8161
8064
8232
7994
8293
7956
8298
7967
8258
8025
8202
8100
8131
8170
8079
8188
8075
8157
8114
8113
8197
8053
8256
8003
8263
7994
8238
8049
8180
8131
8103
8205
8021
8261
7991
8274
8007
8225
8052
8165
8115
8091
8164
8068
8181
8089
8139
8145
8070
8217
8005
8283
7968
8305
7959
8262
8010
8202
8094
8124
8164
8057
8215
8047
8212
8065
8177
8126
8108
8206
8065
8241
8042
8218
8057
8159
8131
8085
8208
8004
8275
7975
8298
7967
8272
8018
8201
8070
8114
8141
8075
8172
8070
8149
8100
8091
8170
8032
8247
7992
8274
7980
8246
8018
8199
8101
8127
8195
8065
8260
8030
8274
8018
8236
8064
8171
8127
8108
8182
8081
8199
8084
8167
8144
8104
8210
8025
8286
7967
8306
7957
8283
7994
8221
8062
8144
8140
8074
8196
8046
8200
8071
8156
8119
8090
8185
8041
8240
8023
8236
8048
8189
8117
8115
8191
8027
8258
7977
8286
7967
8280
8019
8216
8081
8156
8156
8100
8200
8094
8183
8118
8119
8185
8052
8250
7997
8297
7975
8290
8003
8222
8080
8150
8151
8054
8206
8010
8226
8020
8211
8062
8152
8125
8091
8174
8057
8204
8058
8175
8111
8100
8180
8021
8254
7973
8299
7954
8297
7989
8242
8055
8175
8137
8115
8194
8070
8200
8090
8167
8138
8102
8206
8049
8253
8007
8244
8026
8214
8097
8146
8170
8054
8233
7990
8262
7973
8267
7997
8201
8061
8121
8115
8080
8163
8077
8171
8102
8113
8173
8059
8238
7990
8290
7960
8293
7980
8248
8048
8167
8125
8094
8200
8048
8236
8038
8225
8073
8156
8140
8096
8198
8059
8220
8050
8193
8104
8146
8179
8053
8242
7982
8300
7957
8293
7966
8241
8031
8178
8101
8104
8164
8071
8176
8076
8142
8116
8083
8190
8028
8256
7999
8270
8002
8231
8058
8175
8144
8102
8211
8006
8251
7992
8270
8023
8224
8076
8162
8135
8095
8176
8074
8190
8104
8151
8178
8074
8239
8007
8296
7967
8313
7975
8257
8021
8188
8105
8114
8173
8050
8198
8035
8190
8076
8154
8136
8086
8195
8042
8223
8031
8212
8077
8171
8164
8091
8228
7998
8277
7965
8296
7969
8268
8028
8195
8095
8118
8170
8088
8176
8084
8152
8126
8100
8208
8033
8260
7994
8289
7998
8261
8032
8191
8108
8109
8187
8030
8238
7998
8243
8019
8208
8071
8141
8126
8082
8182
8062
8189
8082
8147
8144
8070
8213
8000
8288
7962
8310
7965
8270
8005
8215
8090
8142
8159
8080
8209
8068
8225
8100
8165
8160
8104
8220
8051
8259
8031
8239
8056
8183
8128
8103
8201
8014
8254
7968
8280
7970
8266
8018
8191
8086
8123
8160
8089
8169
8078
8155
8111
8097
8190
8029
8250
7977
8291
7972
8269
8011
8217
8090
8140
8175
8065
8228
8025
8252
8038
8218
8088
8152
8143
8092
8191
8069
8206
8071
8173
8138
8115
8207
8024
8270
7962
8298
7955
8287
7990
8227
8052
8149
8135
8084
8190
8058
8166
8079
8139
8134
8071
8206
8032
8260
8007
8239
8021
8196
8097
8130
8180
8041
8252
8008
8297
8003
8269
8017
8194
8077
8127
8150
8088
8190
8095
8186
8139
8132
8190
8051
8261
7992
8308
7964
8286
7980
8220
8040
8145
8130
8075
8208
8045
8226
8047
8201
8080
8134
8138
8069
8182
8039
8206
8042
8183
8108
8123
8193
8055
8285
8005
8319
7977
8303
7998
8250
8064
8178
8133
8103
8183
8073
8188
8100
8149
8142
8090
8221
8033
8279
8005
8278
8009
8219
8056
8141
8152
8078
8231
8010
8254
7991
8250
8016
8195
8075
8125
8141
8081
8174
8069
8178
8103
8130
8171
8050
8246
7986
8298
7966
8309
7980
8255
8043
8189
8129
8114
8201
8071
8226
8073
8220
8101
8136
8150
8082
8229
8046
8240
8044
8215
8098
8156
8175
8062
8237
7982
8279
7939
8279
7974
8232
8035
8173
8106
8103
8164
8069
8162
8076
8128
8130
8075
8202
8020
8267
7976
8278
7989
8245
8045
8181
8130
8100
8200
8028
8246
8009
8262
8040
8212
8099
8151
8163
8094
8203
8069
8201
8095
8149
8165
8057
8233
8001
8300
7955
8300
7962
8260
8017
8196
8099
8117
8166
8070
8198
8057
8177
8089
8134
8156
8071
8216
8023
8244
8020
8223
8054
8165
8144
8094
8221
8020
8274
7975
8288
7988
8263
8044
8197
8121
8136
8186
8098
8186
8095
8165
8142
8087
8207
8025
8276
7974
8297
7974
8258
8012
8197
8100
8123
8177
8056
8228
8022
8227
8038
8196
8088
8126
8145
8070
8199
8047
8201
8083
8177
8167
8120
8249
8028
8274
7962
8297
7947
8280
8003
8217
8085
8154
8161
8091
8204
8069
8172
8096
8136
8168
8076
8229
8029
8268
8004
8240
8029
8181
8102
8104
8174
8014
8232
7976
8278
8005
8274
8055
8204
8100
8118
8147
8071
8181
8085
8182
8139
8118
8202
8028
8261
7975
8306
7957
8267
7995
8220
8079
8145
8158
8078
8221
8045
8230
8060
8205
8108
8139
8165
8078
8227
8054
8234
8071
8193
8136
8125
8198
8018
8249
7951
8286
7944
8276
7989
8217
8058
8153
8135
8087
8176
8080
8179
8102
8137
8165
8077
8227
8009
8274
7990
8268
8018
8220
8092
8138
8167
8056
8230
8020
8280
8016
8260
8047
8203
8109
8128
8171
8090
8201
8083
8179
8124
8124
8193
8040
8256
7979
8305
7949
8290
7985
8250
8051
8164
8131
8089
8186
8046
8205
8060
8181
8094
8118
8156
8061
8226
8028
8234
8041
8201
8104
8135
8177
8052
8246
7992
8297
7968
8286
8003
8240
8060
8173
8135
8112
8192
8083
8192
8108
8136
8163
8082
8233
8022
8284
7989
8293
8003
8245
8049
8160
8141
8089
8198
8014
8228
7997
8236
8028
8177
8099
8120
8158
8076
8195
8066
8192
8118
8137
8181
8063
8250
7990
8302
7953
8303
7976
8270
8040
8198
8128
8125
8182
8073
8214
8072
8178
8111
8135
8181
8063
8244
8030
8254
8031
8231
8078
8154
8145
8069
8225
7993
8269
7967
8275
7989
8229
8036
8162
8108
8106
8161
8071
8170
8097
8157
8171
8097
8235
8014
8286
7972
8303
7981
8263
8037
8194
8114
8114
8195
8051
8235
8037
8251
8059
8194
8109
8126
8171
8070
8211
8060
8206
8079
8149
8156
8073
8231
7997
8295
7957
8302
7961
8263
8010
8197
8086
8132
8155
8072
8188
8064
8170
8109
8126
8183
8053
8240
8010
8267
8009
8245
8043
8182
8124
8108
8205
8026
8261
7995
8289
8006
8263
8074
8207
8139
8126
8182
8080
8182
8080
8151
8136
8076
8216
8016
8277
7962
8300
7964
8267
8002
8204
8092
8137
8165
8056
8206
8031
8214
8056
8166
8098
8095
8154
8047
8212
8040
8213
8060
8174
8135
8105
8215
8021
8281
7979
8312
7976
8288
8023
8234
8094
8168
8170
8107
8201
8093
8192
8112
8126
8186
8067
8252
8012
8282
7989
8260
8017
8199
8089
8115
8168
8037
8232
8004
8267
8006
8248
8051
8178
8108
8105
8168
8065
8183
8071
8169
8131
8114
8204
8037
8275
7976
8311
7960
8289
7989
8234
8069
8174
8155
8107
8215
8070
8220
8078
8189
8121
8117
8191
8070
8251
8046
8251
8063
8206
8116
8123
8184
8025
8241
7975
8289
7966
8277
8002
8223
8067
8158
8131
8093
8161
8070
8158
8100
8114
8163
8049
8230
7995
8282
7982
8298
8022
8254
8092
8167
8167
8088
8226
8030
8269
8026
8246
8058
8185
8122
8110
8176
8075
8211
8074
8189
8121
8135
8193
8041
8253
7975
8299
7953
8290
7969
8237
8036
8170
8121
8091
8178
8056
8189
8062
8155
8120
8104
8185
8045
8241
8018
8259
8029
8211
8087
8155
8168
8078
8237
8003
8292
7995
8301
8023
8251
8082
8178
8147
8105
8176
8083
8176
8096
8123
8165
8072
8231
7996
8289
7968
8297
7985
8248
8040
8172
8123
8106
8198
8040
8230
8021
8227
8059
8178
8117
8106
8178
8068
8217
8052
8191
8090
8140
8174
8064
8246
7996
8295
7961
8309
7983
8262
8039
8206
8125
8139
8185
8085
8199
8080
8164
8122
8110
8195
8040
8250
8008
8275
8002
8233
8046
8170
8140
8095
8213
8018
8256
7981
8265
7997
8211
8048
8155
8125
8103
8177
8083
8192
8098
8152
8155
8075
8229
8005
8287
7963
8311
7977
8272
8022
8214
8113
8135
8185
8068
8228
8053
8228
8077
8186
8138
8113
8200
8063
8244
8047
8220
8077
8163
8147
8077
8220
8004
8276
7959
8298
7971
8255
8020
8201
8088
8133
8165
8081
8177
8080
8161
8124
8112
8187
8040
8259
7996
8278
7994
8259
8040
8201
8120
8119
8194
8042
8256
8011
8275
8033
8248
8080
8186
8148
8121
8199
8083
8200
8083
8154
8139
8076
8200
7998
8282
7960
8299
7947
8271
7997
8215
8071
8142
8164
8081
8217
8066
8214
8077
8152
8120
8086
8187
8036
8248
8035
8249
8062
8191
8126
8110
8206
8033
8264
7983
8306
7982
8285
8031
8225
8096
8154
8162
8101
8195
8090
8177
8126
8111
8189
8048
8264
8011
8301
7989
8293
8018
8229
8102
8150
8178
8074
8236
8030
8260
8027
8213
8063
8154
8122
8099
8181
8063
8211
8085
8179
8137
8117
8201
8027
8267
7973
8305
7960
8297
7996
8241
8063
8169
8151
8098
8198
8073
8203
8085
8157
8138
8101
8207
8043
8257
8020
8244
8030
8202
8091
8114
8157
8028
8226
7974
8272
7967
8258
8006
8204
8066
8125
8129
8077
8166
8074
8166
8102
8111
8182
8047
8256
7999
8307
7977
8295
7996
8246
8059
8171
8143
8092
8206
8036
8231
8037
8233
8085
8161
8145
8105
8205
8063
8229
8063
8187
8109
8124
8180
8041
8254
7978
8291
7950
8288
7977
8239
8037
8174
8127
8101
8173
8066
8184
8075
8150
8132
8090
8205
8031
8263
8007
8281
8022
8235
8087
8165
8163
8085
8229
8010
8270
7997
8284
8035
8234
8102
8173
8166
8104
8191
8092
8201
8115
8137
8175
8056
8240
7990
8291
7964
8303
7972
8248
8029
8181
8114
8108
8187
8039
8224
8053
8223
8091
8160
8146
8096
8202
8042
8228
8044
8202
8081
8150
8167
8078
8247
8008
8310
7980
8322
8003
8276
8053
8200
8122
8135
8176
8081
8188
8094
8174
8153
8105
8204
8036
8263
7991
8284
7993
8239
8037
8178
8124
8093
8198
8025
8252
8006
8261
8018
8210
8068
8139
8134
8077
8173
8061
8183
8089
8146
8162
8082
8244
8018
8313
7985
8338
7991
8295
8026
8209
8104
8138
8184
8085
8229
8074
8227
8105
8158
8147
8085
8212
8035
8237
8026
8222
8061
8169
8133
8083
8209
8006
8272
7970
8290
7985
8257
8024
8195
8099
8116
8160
8081
8179
8083
8158
8128
8096
8205
8028
8269
7986
8299
7987
8271
8030
8214
8110
8139
8193
8064
8246
8031
8266
8051
8224
8097
8152
8158
8099
8217
8065
8205
8083
8176
8152
8095
8219
8011
8275
7964
8311
7962
8288
8004
8216
8065
8133
8144
8072
8192
8057
8180
8085
8139
8148
8077
8214
8030
8258
8013
8245
8048
8197
8116
8119
8196
8035
8270
8005
8302
7998
8281
8044
8222
8114
8154
8179
8099
8205
8099
8188
8144
8105
8193
8030
8251
7974
8295
7967
8273
8005
8223
8074
8140
8149
8066
8203
8028
8222
8039
8205
8088
8134
8148
8079
8192
8042
8215
8066
8186
8124
8114
8200
8033
8276
7985
8316
7978
8312
8015
8248
8076
8177
8160
8113
8193
8085
8183
8097
8137
8162
8086
8224
8028
8272
7999
8260
8016
8216
8093
8137
8165
8043
8222
7995
8271
7994
8262
8031
8197
8094
8122
8136
8083
8181
8076
8175
8107
8121
8191
8053
8260
7990
8311
7970
8308
7993
8260
8061
8184
8148
8117
8210
8063
8228
8058
8203
8095
8137
8165
8085
8234
8052
8243
8056
8202
8107
8134
8177
8049
8254
7985
8306
7967
8285
7985
8232
8036
8165
8114
8099
8172
8071
8170
8089
8139
8157
8084
8230
8025
8279
7990
8295
8006
8241
8074
8169
8154
8098
8229
8035
8267
8021
8274
8052
8218
8106
8140
8167
8094
8203
8074
8185
8109
8140
8182
8062
8242
7987
8293
7952
8301
7972
8254
8027
8178
8097
8102
8166
8045
8191
8048
8176
8103
8146
8189
8110
8270
8050
8266
8043
8218
8069
8155
8161
8083
8229
8001
8271
7971
8293
7995
8265
8054
8192
8123
8125
8181
8086
8193
8101
8159
8154
8073
8214
8012
8276
7981
8297
7991
8254
8030
8183
8112
8106
8193
8038
8236
8020
8244
8038
8198
8097
8128
8162
8082
8206
8072
8201
8088
8150
8154
8069
8230
8002
8299
7974
8320
7981
8298
8035
8217
8113
8143
8171
8090
8209
8078
8201
8116
8141
8174
8066
8242
8024
8264
8013
8234
8049
8176
8128
8085
8205
8014
8261
7978
8284
7988
8235
8044
8184
8109
8111
8165
8078
8188
8100
8168
8155
8093
8223
8027
8284
7979
8303
7973
8279
8024
8217
8106
8148
8187
8070
8234
8047
8249
8062
8199
8112
8131
8169
8078
8230
8056
8217
8075
8168
8132
8096
8221
8008
8278
7969
8314
7969
8287
8007
8216
8076
8152
8155
8088
8184
8075
8174
8109
8127
8174
8068
8229
8011
8280
8003
8263
8034
8205
8108
8126
8192
8055
8267
8016
8296
8018
8269
8052
8199
8114
8131
8186
8095
8204
8083
8165
8133
8098
8200
8024
8281
7976
8309
7972
8293
7999
8227
8066
8153
8149
8076
8196
8037
8204
8050
8172
8101
8118
8166
8063
8233
8043
8231
8053
8194
8124
8128
8199
8042
8284
7991
8320
7990
8303
8024
8245
8090
8179
8160
8109
8192
8082
8174
8105
8125
8170
8065
8234
8003
8282
7980
8258
7994
8217
8069
8147
8177
8090
8234
8018
8248
8009
8245
8052
8196
8118
8121
8164
8068
8190
8070
8176
8120
8118
8190
8043
8260
7986
8317
7967
8314
7993
8261
8068
8189
8146
8122
8201
8078
8223
8080
8178
8117
8126
8186
8061
8240
8025
8243
8037
8212
8097
8134
8160
8046
8251
7999
8296
7978
8288
7998
8226
8055
8166
8127
8106
8185
8080
8172
8105
8144
8165
8067
8237
8009
8287
7977
8292
7998
8253
8074
8184
8151
8108
8218
8041
8246
8029
8248
8067
8193
8120
8115
8178
8078
8215
8068
8199
8112
8144
8185
8058
8249
7987
8300
7957
8304
7975
8257
8032
8188
8114
8125
8174
8076
8198
8069
8170
8121
8118
8184
8058
8244
8016
8265
8022
8233
8068
8169
8158
8086
8232
8019
8277
7993
8291
8012
8259
8074
8181
8132
8111
8190
8086
8186
8097
8149
8157
8070
8225
8013
8292
7970
8305
7981
8255
8022
8189
8109
8107
8177
8049
8228
8040
8232
8058
8166
8117
8112
8186
8067
8222
8057
8212
8085
8160
8162
8081
8232
8000
8293
7971
8321
7987
8295
8040
8220
8119
8152
8186
8097
8203
8088
8174
8123
8119
8187
8054
8251
8004
8277
8001
8246
8040
8184
8124
8122
8211
8028
8253
8000
8270
8004
8227
8062
8174
8122
8106
8173
8081
8196
8096
8157
8159
8091
8222
8019
8289
7975
8316
7976
8301
8026
8230
8105
8160
8181
8083
8224
8065
8242
8081
8170
8121
8108
8189
8062
8244
8028
8219
8060
8167
8119
8089
8206
8019
8273
7967
8303
7969
8276
8014
8203
8079
8138
8152
8083
8173
8076
8160
8116
8117
8189
8066
8283
8024
8308
8006
8269
8022
8214
8108
8137
8187
8064
8254
8026
8275
8032
8252
8075
8180
8125
8115
8180
8075
8203
8079
8165
8134
8085
8195
8016
8262
7961
8308
7959
8291
7994
8229
8065
8157
8147
8084
8197
8065
8211
8077
8163
8127
8100
8198
8045
8254
8029
8242
8052
8193
8119
8129
8195
8045
8270
8005
8318
7996
8296
8033
8235
8095
8159
8158
8101
8195
8087
8178
8120
8119
8188
8055
8247
7999
8299
7984
8298
8001
8227
8077
8152
8149
8067
8209
8022
8235
8027
8230
8067
8153
8129
8101
8179
8065
8217
8077
8191
8129
8124
8202
8047
8267
7989
8320
7964
8311
8003
8261
8065
8187
8147
8122
8198
8082
8214
8095
8179
8140
8099
8199
8038
8254
8008
8249
8021
8210
8086
8144
8171
8056
8236
7997
8289
7983
8275
8017
8220
8077
8157
8139
8100
8178
8083
8178
8113
8114
8172
8051
8245
7997
8302
7974
8310
7999
8254
8060
8188
8147
8110
8218
8070
8269
8065
8247
8093
8178
8146
8108
8205
8062
8225
8055
8191
8100
8121
8159
8043
8246
7986
8308
7959
8305
7977
8248
8046
8190
8128
8126
8175
8077
8195
8082
8156
8125
8090
8202
8035
8265
8000
8276
8011
8227
8060
8167
8161
8102
8237
8034
8290
8017
8285
8036
8237
8087
8167
8150
8101
8187
8083
8189
8093
8134
8161
8058
8236
7992
8285
7957
8298
7976
8258
8028
8195
8120
8125
8183
8064
8234
8066
8231
8088
8155
8137
8089
8205
8050
8235
8044
8216
8082
8161
8163
8078
8238
8013
8304
7979
8318
7997
8276
8043
8208
8129
8144
8174
8090
8186
8091
8159
8131
8097
8199
8033
8263
7993
8288
7992
8247
8035
8186
8124
8109
8194
8029
8244
8004
8256
8020
8214
8077
8146
8144
8097
8181
8071
8193
8098
8159
8171
8088
8237
8012
8299
7972
8323
7984
8300
8023
8224
8113
8148
8180
8082
8214
8065
8219
8095
8159
8152
8100
8216
8049
8256
8027
8229
8062
8170
8128
8090
8208
8022
8277
7990
8315
7987
8274
8032
8191
8090
8113
8139
8071
8163
8080
8162
8130
8100
8204
8043
8275
7994
8303
7990
8279
8037
8229
8115
8149
8199
8072
8246
8029
8257
8035
8212
8088
8153
8156
8098
8192
8063
8205
8080
8163
8138
8103
8217
8009
8276
7966
8312
7961
8284
8001
8229
8079
8160
8160
8090
8196
8076
8186
8094
8146
8148
8082
8212
8035
8264
8018
8254
8053
8205
8128
8136
8208
8048
8263
8001
8300
8004
8283
8044
8221
8108
8152
8181
8101
8182
8091
8170
8120
8101
8193
8029
8254
7976
8298
7960
8279
8008
8233
8093
8159
8156
8079
8217
8037
8231
8037
8210
8094
8145
8156
8081
8211
8056
8218
8072
8194
8133
8117
8209
8032
8281
7989
8325
7978
8316
8024
8249
8080
8176
8156
8104
8188
8071
8176
8094
8141
8158
8074
8214
8015
8267
7995
8265
8035
8232
8098
8136
8172
8058
8243
8005
8284
8002
8262
8037
8206
8097
8133
8157
8093
8202
8082
8176
8115
8106
8191
8046
8269
7999
8323
7977
8311
8004
8257
8083
8186
8156
8110
8210
8060
8233
8054
8206
8097
8139
8148
8068
8188
8032
8218
8048
8193
8114
8137
8197
8050
8262
7986
8293
7957
8284
7979
8237
8061
8172
8137
8108
8181
8087
8185
8095
8144
8166
8092
8239
8029
8279
7999
8290
8020
8246
8091
8180
8167
8100
8240
8036
8285
8023
8264
8051
8209
8107
8140
8176
8085
8199
8072
8179
8104
8122
8174
8050
8245
7985
8310
7960
8309
7981
8254
8036
8179
8123
8107
8191
8064
8212
8054
8184
8099
8131
8181
8080
8241
8043
8252
8046
8221
8101
8156
8172
8073
8254
8013
8311
7988
8303
8006
8252
8070
8192
8143
8120
8189
8091
8185
8104
8138
8154
8079
8224
8013
8273
7971
8279
7982
8241
8038
8183
8137
8108
8208
8037
8242
8019
8252
8052
8201
8105
8125
8161
8081
8213
8072
8199
8093
8146
8176
8066
8244
8007
8315
7972
8324
7989
8287
8056
8221
8130
8148
8195
8089
8210
8070
8179
8107
8135
8181
8068
8241
8013
8248
8025
8222
8057
8158
8138
8082
8221
8014
8280
7985
8283
7990
8239
8055
8175
8111
8110
8180
8078
8187
8102
8162
8160
8093
8227
8016
8291
7985
8308
7995
8277
8043
8209
8119
8128
8194
8060
8247
8051
8250
8065
8197
8112
8121
8171
8087
8243
8079
8215
8074
8143
8143
8070
8224
8001
8293
7965
8312
7972
8283
8020
8219
8106
8143
8160
8084
8188
8078
8175
8112
8125
8181
8055
8245
8023
8277
8017
8254
8051
8202
8141
8127
8224
8045
8271
8001
8285
8013
8266
8066
8201
8136
8128
8188
8085
8190
8089
8160
8145
8079
8202
8004
8272
7964
8296
7967
8276
8012
8214
8090
8141
8171
8066
8217
8049
8222
8062
8189
8121
8121
8182
8073
8240
8051
8226
8074
8172
8137
8106
8225
8032
8290
7982
8322
7981
8295
8023
8218
8079
8163
8163
8096
8198
8084
8174
8117
8133
8179
8055
8228
7996
8279
7985
8255
8020
8198
8099
8131
8183
8055
8250
8020
8282
8022
8260
8064
8185
8123
8113
8168
8075
8192
8089
8178
8145
8121
8219
8049
8305
8000
8333
7988
8321
8022
8240
8073
8159
8155
8087
8205
8051
8211
8069
8193
8130
8117
8183
8049
8230
8011
8220
8032
8166
8098
8109
8189
8029
8254
7973
8292
7960
8274
8006
8219
8077
8170
8165
8116
8210
8110
8208
8141
8160
8216
8088
8278
8023
8311
8011
8319
8047
8266
8123
8195
8187
8103
8240
8036
8278
8038
8259
8077
8193
8139
8119
8177
8072
8197
8058
8170
8119
8113
8190
8025
8249
7965
8289
7946
8284
7980
8244
8047
8174
8131
8098
8195
8067
8207
8075
8168
8126
8108
8189
8044
8247
8012
8245
8031
8210
8108
8148
8185
8076
8262
8016
8307
7994
8292
8016
8232
8082
8176
8150
8104
8190
8080
8162
8094
8116
8162
8051
8231
7983
8280
7966
8298
8002
8246
8058
8178
8148
8104
8204
8033
8231
8026
8229
8058
8163
8125
8122
8198
8067
8228
8075
8208
8124
8143
8193
8062
8259
7997
8320
7975
8316
7989
8265
8057
8193
8131
8129
8186
8067
8178
8070
8146
8106
8081
8180
8039
8257
8011
8278
8020
8234
8086
8167
8156
8090
8236
8018
8286
8006
8287
8017
8230
8073
8164
8127
8094
8171
8073
8178
8108
8164
8192
8099
8261
8017
8304
7979
8318
7993
8280
8056
8214
8142
8142
8209
8081
8254
8067
8249
8093
8184
8140
8112
8201
8060
8222
8049
8214
8102
8171
8187
8091
8253
8012
8314
7986
8318
7984
8264
8033
8195
8096
8111
8162
8079
8173
8073
8143
8111
8086
8186
8045
8265
7999
8285
7996
8252
8048
8189
8129
8113
8217
8046
8274
8024
8284
8038
8249
8089
8168
8137
8107
8180
8073
8189
8088
8151
8146
8069
8215
8001
8287
7964
8303
7963
8269
8014
8211
8102
8142
8174
8070
8217
8056
8209
8080
8164
8136
8100
8211
8046
8251
8037
8232
8076
8187
8159
8116
8233
8038
8303
7991
8316
7989
8292
8041
8214
8097
8145
8172
8091
8180
8091
8159
8120
8105
8190
8029
8258
7989
8289
7989
8268
8025
8212
8105
8136
8189
8062
8242
8018
8266
8032
8235
8076
8149
8131
8085
8180
8062
8203
8076
8165
8147
8106
8232
8045
8329
8005
8346
7991
8310
8014
8234
8082
8168
8163
8101
8213
8083
8230
8099
8178
8156
8103
8218
8041
8246
8013
8244
8045
8193
8113
8119
8196
8032
8258
7989
8298
7986
8277
8031
8219
8097
8151
8164
8097
8180
8084
8167
8115
8110
8196
8044
8250
7984
8293
7979
8298
8023
8243
8097
8172
8178
8091
8237
8050
8268
8053
8242
8093
8154
8147
8096
8201
8057
8213
8065
8185
8128
8115
8201
8027
8263
7972
8312
7964
8302
7997
8235
8054
8158
8133
8102
8194
8071
8187
8087
8144
8139
8094
8221
8038
8273
8016
8273
8042
8232
8116
8162
8211
8091
8273
8032
8304
8011
8285
8038
8229
8090
8158
8170
8095
8189
8081
8179
8117
8130
8184
8044
8249
7987
8304
7968
8299
7988
8242
8048
8153
8122
8063
8172
8010
8187
8013
8175
8066
8129
8132
8078
8192
8054
8221
8059
8208
8118
8144
8204
8066
8274
8012
8326
7982
8328
8030
8298
8101
8226
8175
8165
8225
8122
8236
8125
8180
8162
8099
8222
8041
8293
8018
8300
8030
8239
8071
8162
8155
8087
8217
8008
8246
7982
8242
8001
8188
8075
8125
8138
8083
8183
8065
8168
8093
8134
8179
8068
8267
8014
8326
7984
8322
7983
8249
8038
8187
8125
8125
8198
8071
8226
8064
8206
8100
8149
8146
8072
8203
8029
8220
8023
8191
8067
8146
8156
8053
8233
7996
8300
7971
8304
7992
8257
8066
8209
8146
8130
8187
8091
8186
8103
8174
8170
8102
8224
8036
8293
8011
8315
8022
8287
8100
8235
8179
8143
8226
8050
8271
8035
8280
8053
8220
8115
8177
8192
8114
8239
8102
8222
8128
8173
8183
8084
8259
8016
8312
7969
8323
7982
8272
8021
8206
8120
8147
8189
8091
8211
8064
8184
8099
8139
8153
8073
8220
8027
8241
8020
8222
8060
8160
8134
8080
8209
8001
8270
7982
8299
7995
8264
8046
8186
8104
8109
8154
8076
8167
8070
8127
8107
8064
8193
7996
8256
7961
8285
7965
8241
8001
8186
8101
8122
8177
8049
8232
8028
8246
8040
8194
8090
8122
8143
8062
8164
8026
8163
8039
8125
8133
8091
8234
8019
8301
7966
8305
7962
8292
8019
8211
8089
8160
8186
8140
8245
8122
8259
8179
8212
8234
8142
8316
8090
8320
8061
8305
8110
8247
8167
8143
8235
8071
8317
8039
8328
8037
8294
8077
8225
8123
8113
8135
8038
8115
8017
8085
8061
8018
8129
7934
8135
7839
8138
7815
8110
7841
8051
7931
7987
8023
7959
8131
7980
8191
8034
8206
8141
8188
8225
8149
8329
8176
8369
8242
8374
8355
8329
8468
8313
8607
8336
8642
8277
8516
8185
8379
8200
8256
8233
8163
8239
8121
8211
8114
8128
8151
8036
8192
7984
8235
7961
8223
7991
8189
8087
8122
8165
8025
8203
7960
8225
7955
8194
7981
8124
8047
8052
8085
8011
8128
8024
8116
8100
8115
8217
8063
8304
8010
8328
7970
8310
8010
8253
8067
8167
8139
8075
8186
8030
8192
8028
8141
8063
8078
8120
8020
8177
8010
8205
8027
8170
8070
8036
8092
7940
8171
7912
8218
7894
8202
7922
8160
7996
8096
8075
8042
8110
8010
8099
8041
8087
8115
8023
8197
8001
8303
8024
8346
8071
8306
8169
8277
8308
8252
8374
8119
8317
8041
8254
8032
8157
8087
8105
8159
8068
8206
8092
8211
8150
8174
8259
8144
8370
8090
8395
8032
8378
8032
8278
8058
8167
8073
8033
8086
7970
8118
7989
8091
8028
8030
8091
7997
8178
8004
8247
8047
8220
8090
8150
8180
8101
8286
8071
8394
8098
8420
8130
8350
8162
8260
8219
8182
8232
8115
8207
8133
8184
8193
8082
8226
8013
8323
8028
8330
7989
8218
8013
8154
8103
8072
8175
8021
8250
8090
8346
8172
8293
8193
8202
8272
8139
8260
8092
8203
8089
8132
8169
8042
8203
7919
8208
7877
8226
7918
8201
7999
8188
8124
8152
8236
8171
8344
8264
8405
8363
8356
8376
8215
8366
8108
8350
8094
8308
8154
8255
8228
8137
8257
8035
8284
7981
8268
7972
8194
8007
8107
8057
8037
8104
8011
8106
8023
8067
8082
8004
8157
7950
8217
7902
8222
7903
8188
7949
8123
8029
8042
8115
7982
8151
7963
8143
7992
8099
8023
7988
8020
7886
8036
7908
8065
7956
8038
8051
7973
8127
7908
8210
7910
8260
7928
8239
8006
8188
8100
8169
8212
8179
8317
8232
8322
8270
8284
8353
8222
8377
8081
8312
8009
8247
8028
8171
8108
8093
8166
7985
8202
7930
8195
7945
8161
8010
8143
8114
8118
8256
8226
8372
8276
8327
8314
8248
8393
8215
8485
8160
8494
8137
8446
8163
8353
8225
8286
8307
8202
8319
8125
8286
8114
8210
8142
8111
8188
8038
8191
7993
8174
8005
8096
8047
8009
8118
7921
8170
7876
8201
7888
8192
7921
8093
7927
7932
7908
7842
7949
7851
7944
7920
7932
7991
7841
8005
7762
8038
7763
8076
7907
8126
8038
8147
8308
8316
8628
8488
8775
8545
8734
8493
8547
8453
8391
8441
8320
8444
8329
8385
8253
8145
8211
8005
8225
7906
8230
7879
8232
7976
8200
8029
8107
8123
8141
8268
8128
8312
8190
8307
8265
8239
8326
8168
8341
8100
8294
8056
8177
8081
8071
8125
7930
8093
7729
7994
7652
7939
7666
7881
7776
7890
7919
7869
7969
7898
7995
7968
8000
8104
8058
8389
8261
8623
8367
8687
8430
8620
8394
8392
8323
8223
8358
8151
8341
8091
8288
8135
8226
8160
8073
8102
7945
8070
7950
8070
8017
8001
8108
7978
8242
7982
8332
7998
8354
8061
8343
8174
8268
8223
8194
8261
8116
8246
8114
8154
8079
8022
8116
7975
8178
7923
8111
7861
8024
7927
7986
8052
7961
8126
7852
8098
7818
8115
7871
8059
7934
8030
8029
8010
8135
8066
8142
8068
8129
8157
7988
8160
7927
8281
8002
8339
8022
8272
8087
8220
8212
8187
8345
8255
8488
8298
8434
8256
8336
8354
8317
8406
8273
8408
8220
8337
8235
8262
8339
8242
8423
8101
8376
8031
8415
8130
8425
8267
8439
8391
8345
8343
8174
8243
8059
8103
8071
8033
8112
7936
8159
7929
8166
7873
8073
7889
7971
7959
7912
8092
7922
8236
8019
8347
8092
8245
8067
8130
8142
8144
8307
8243
8312
8183
8161
8158
8018
8176
7918
8202
7875
8215
7924
8243
8048
8181
8045
7996
8068
7956
8096
7926
8068
7955
8026
8011
7970
8056
7930
8137
8001
8181
8054
8109
8126
8073
8289
8086
8406
8117
8475
8180
8461
8234
8362
8278
8284
8306
8161
8201
8062
8089
8041
7945
7959
7735
7913
7634
7912
7643
7911
7775
7988
7887
7811
7929
7808
8090
7939
8285
8151
8457
8417
8560
8608
8518
8552
8420
8562
8456
8458
8428
8285
8376
8101
8391
8093
8446
8079
8372
8111
8261
8127
8151
8208
8132
8237
8074
8246
8184
8288
8246
8111
8215
8073
8322
8099
8290
8119
8194
8146
8043
8120
7889
8131
7805
8095
7783
8019
7790
7949
7894
7945
8016
7969
8085
8016
8100
8119
8158
8322
8130
8276
7908
8129
7790
8069
7863
8078
8034
8101
8113
7929
8069
7880
8152
8049
8374
8335
8417
8447
8408
8530
8393
8513
8379
8438
8405
8343
8448
8240
8507
8180
8473
8069
8334
8004
8194
8022
8079
8090
8043
8196
8092
8239
8092
8099
8085
8019
8160
7986
8208
7971
8220
8083
8269
8188
8151
8202
7998
8185
7883
8163
7901
8200
8027
8231
8165
8165
8131
7999
8057
7936
8006
7986
7961
8050
7869
8043
7758
8051
7752
8092
7903
8233
8232
8403
8426
8272
8343
8086
8263
8088
8293
8194
8230
8210
8094
8175
7978
8061
7882
7965
7918
7894
7971
7793
8036
7737
8111
7874
8329
8125
8367
8166
8180
8072
8003
8130
8045
8150
8099
8207
8250
8199
8369
8214
8546
8413
8754
8556
8719
8571
8558
8551
8369
8487
8207
8430
8085
8306
8055
8209
8093
8130
8176
8105
8230
8092
8161
8102
8124
8200
8042
8263
7981
8297
7942
8253
7943
8190
8010
8117
8088
8020
8127
7962
8110
7947
8074
7970
8027
8070
7972
8055
7872
8045
7874
8005
7941
7946
7968
7792
7990
7729
8062
7770
8123
7876
8154
7983
8120
8167
8228
8347
8239
8333
8276
8317
8293
8201
8323
8007
8149
7776
7979
7721
8015
7949
8147
8158
8070
8226
8045
8336
8118
8419
8260
8430
8390
8504
8596
8573
8741
8582
8621
8462
8351
8283
8075
8228
7926
8209
7836
8141
7829
8086
7888
8037
8000
8034
8158
8068
8273
8158
8383
8375
8441
8450
8273
8327
8074
8275
8056
8218
8087
8139
8135
8021
8191
7950
8240
7918
8228
7920
8190
8015
8136
8060
8027
8062
7969
8072
7991
8028
8047
8000
8153
7950
8209
7929
8251
7939
8187
8013
8175
8146
8127
8251
8094
8329
8084
8279
8059
8204
8124
8187
8277
8239
8371
8197
8283
8159
8163
8128
7950
8065
7753
7982
7623
7960
7627
7943
7703
7891
7831
7921
8034
8018
8264
8240
8446
8422
8517
8630
8536
8618
8331
8447
8144
8285
8046
8095
8015
7937
8083
7880
8164
7911
8261
8007
8280
8108
8277
8245
8250
8291
8183
8310
8210
8232
8179
8057
8196
8039
8348
8055
8356
8021
8343
8064
8175
8029
8054
8138
8042
8282
8123
8409
8306
8449
8336
8272
8212
8059
8198
8065
8219
8083
8157
8141
8061
8202
7972
8235
7931
8274
7923
8228
7953
8130
7965
7957
7956
7908
8080
8082
8240
8086
8030
8094
7996
8193
7974
8233
8002
8314
8190
8358
8255
8238
8319
8191
8441
8222
8528
8256
8476
8290
8380
8251
8205
8208
8081
8154
8036
8083
8053
7981
8037
7803
8005
7655
7959
7604
7940
7704
7911
7784
7910
8036
8025
8170
7986
8225
8186
8418
8435
8488
8555
8416
8492
8238
8366
8159
8226
8172
8190
8300
8147
8423
8121
8431
8053
8358
8089
8296
8077
8076
8054
8012
8117
8048
8199
8168
8167
8159
7999
8142
7923
8200
7920
8198
7953
8150
8017
8044
8078
7957
8142
7927
8145
7909
8151
8011
8184
8118
8098
8131
8033
8171
8090
8205
8168
8146
8242
8073
8336
8095
8467
8106
8399
8056
8280
8114
8203
8157
8078
8174
7990
8102
7939
8022
7933
7943
8012
7921
8090
7849
8009
7866
8043
7897
7886
7951
7786
8026
7805
8196
8026
8507
8367
8612
8418
8466
8460
8480
8538
8365
8429
8425
8496
8500
8309
8380
8081
8365
8075
8379
8094
8312
8127
8215
8244
8229
8414
8226
8434
8176
8380
8175
8280
8207
8186
8255
8123
8260
8093
8182
8086
8066
8110
7960
8147
7832
8081
7694
8017
7735
8010
7796
7980
7969
7896
7885
7759
7904
7815
7935
7938
7963
8100
8028
8260
8078
8353
8157
8374
8308
8399
8448
8319
8462
8282
8649
8358
8560
8196
8357
8185
8261
8236
8190
8248
8110
8186
8088
8101
8139
8018
8170
7900
8149
7818
8120
7830
8063
7852
8010
7962
7906
8003
7882
8094
7915
8106
7887
7920
7873
7914
8027
7932
8160
8091
8265
8130
8105
8124
8029
8263
8053
8430
8126
8523
8322
8690
8439
8532
8406
8369
8380
8256
8347
8229
8301
8230
8200
8285
8133
8334
8050
8289
8012
8221
8038
8155
8138
8074
8218
8004
8220
7930
8174
7913
8108
7935
8017
8000
7963
8002
7878
8014
7974
8033
8064
8008
8195
7991
8266
7946
8354
8108
8464
8240
8407
8320
8277
8245
8047
8186
8001
8129
7957
8029
7966
7951
8048
7905
8034
7853
8030
7966
8142
8261
8274
8434
8184
8491
8255
8602
8193
8407
8124
8284
8172
8209
8240
8110
8162
8040
8111
8064
8048
8170
8059
8314
8071
8324
8004
8253
8014
8175
8105
8111
8201
8051
8313
8078
8321
8055
8276
8106
8203
8224
8242
8330
8192
8264
8116
8144
8127
8058
8197
7990
8279
7977
8329
7974
8285
8015
8203
8068
8128
8166
8075
8210
8036
8165
8009
8061
8043
8013
8105
7953
8124
7919
8091
7927
8069
8047
8029
8142
7908
8121
7811
8107
7777
8073
7942
8257
8298
8453
8505
8403
8415
8214
8229
8125
8033
8039
7842
8040
7842
8155
7818
8050
7785
7966
7862
7915
8016
7993
8297
8200
8526
8411
8706
8537
8546
8475
8470
8578
8376
8401
8211
8262
8236
8210
8348
8183
8439
8096
8423
8061
8366
8053
8267
8114
8208
8205
8117
8186
8022
8137
8027
8108
8102
8064
8182
8010
8249
8025
8259
8038
8146
8005
7971
7980
7780
7981
7701
7980
7656
7941
7701
7891
7816
7923
7994
8008
8171
8206
8407
8495
8533
8571
8407
8576
8293
8548
8202
8499
8213
8419
8228
8239
8147
7961
8016
7798
7957
7731
7839
7667
7700
7665
7590
7740
7652
7857
7758
7948
7977
8077
8323
8291
8573
8334
8686
8447
8944
8794
8990
8642
8589
8467
8405
8458
8325
8408
8276
8298
8247
8172
8284
8085
8307
8026
8266
8026
8212
8077
8115
8147
8033
8210
7954
8211
7911
8158
7917
8091
7965
8014
8025
7970
8073
7991
8083
8009
7975
8005
7887
8095
7874
8221
7940
8305
7978
8207
7989
8126
8130
8118
8243
8086
8288
8110
8288
8145
8203
8168
8036
8108
7972
8168
8033
8185
8109
8157
8156
7922
8070
7798
8105
7783
8124
7871
8157
8000
8145
8120
8147
8217
8140
8286
8216
8333
8359
8318
8396
8113
8296
7985
8256
8019
8277
8134
8204
8165
8107
8281
8121
8383
8091
8312
8019
8129
7993
8047
8074
8023
8118
8022
8148
8077
8124
8181
8062
8284
8111
8488
8164
8502
8170
8410
8156
8285
8225
8196
8239
8089
8210
8025
8139
8020
8047
8042
7969
8095
7907
8087
7928
8155
8041
8058
8015
7868
8012
7766
8111
7912
8317
8008
8235
8056
8258
8214
8169
8213
8203
8428
8409
8476
8454
8339
8416
8188
8405
8090
8379
8064
8311
8110
8231
8173
8135
8228
8032
8244
7979
8202
7982
8141
8050
8101
8098
8020
8132
8028
8238
8238
8275
8212
8046
8203
7968
8285
7969
8315
7990
8330
8117
8262
8143
8157
8220
8107
8211
8020
8120
8044
8098
8112
8026
8175
7987
8189
7966
8162
8020
8162
8162
8089
8206
7998
8277
7977
8299
8030
8322
8124
8266
8188
8175
8174
7985
7975
7847
7923
7887
7827
7981
7861
8162
7877
8158
7872
8176
8015
8287
8271
8362
8478
8355
8516
8256
8376
8138
8313
8228
8279
8319
8308
8488
8381
8490
8333
8336
8274
8179
8294
8040
8287
7955
8307
7974
8278
7989
8192
8088
8136
8126
8023
8138
8043
8187
8136
8188
8181
8027
8118
7906
8107
7848
8070
7885
8030
7959
7935
8005
7800
8031
7800
8146
7944
8262
8077
8279
8234
8233
8283
8204
8311
8176
8203
8178
8137
8230
8050
8331
8066
8437
8128
8425
8118
8265
8082
8114
8153
8055
8192
7979
8160
7991
8125
8068
8144
8261
8212
8352
8124
8214
8023
8065
7970
7883
7981
7765
7994
7713
8098
7807
8118
7896
8185
8053
8114
8164
8206
8381
8308
8435
8415
8451
8432
8295
8441
8231
8473
8195
8424
8158
8289
8175
8197
8249
8093
8292
8060
8324
8015
8227
7980
8118
8046
8066
8104
8000
8087
7965
8037
8030
8010
8119
7956
8247
8036
8442
8139
8422
8049
8219
8043
8161
8229
8232
8348
8124
8237
8060
8202
8133
8103
8115
8021
8197
8039
8217
8060
8188
8110
8098
8186
8063
8336
8027
8341
7986
8295
8010
8217
8030
8068
8036
7993
8081
7986
8077
8043
8148
8249
8122
8211
7946
8150
7838
8120
7878
8130
8003
7977
7924
7802
7968
7761
8044
7908
8272
8230
8463
8470
8530
8597
8502
8578
8414
8488
8450
8429
8458
8228
8389
8080
8407
8060
8402
8060
8252
8001
8066
8026
7988
8072
7950
8083
7966
8117
8102
8108
8153
8021
8156
7926
8078
7856
8010
7952
8059
8147
7997
8183
7929
8259
7971
8315
8044
8237
8042
8106
8096
8093
8190
8124
8262
8212
8211
8248
8170
8397
8218
8536
8184
8391
8051
8281
8126
8220
8166
8048
8151
7961
8194
8002
8257
8109
8255
8203
8226
8304
8163
8237
8050
8146
8041
8039
8103
7975
8182
7922
8259
7941
8334
8075
8364
8095
8186
8119
8136
8203
8088
8222
8118
8245
8184
8186
8220
8051
8180
7919
8116
7867
8062
7957
8044
8073
7973
8115
7862
8140
7875
8221
8047
8320
8138
8196
8154
8144
8246
8148
8243
8141
8210
8285
8216
8342
8076
8329
7971
8273
7928
8184
7988
8174
8137
8103
8189
8040
8225
8034
8244
8095
8267
8262
8245
8278
8126
8291
8113
8224
8064
8072
8093
8015
8218
8003
8309
7968
8277
7877
8103
7877
8050
7973
7976
8017
7943
8057
7952
8040
8047
8152
8347
8254
8450
8146
8324
7984
8171
7947
8044
8022
8016
8204
8107
8461
8240
8480
8198
8383
8205
8319
8341
8358
8345
8046
7995
7856
7880
7903
7885
8105
7984
8300
7948
8261
7979
8372
8226
8614
8715
8777
8722
8479
8520
8269
8355
8152
8254
8202
8161
8264
8116
8273
8057
8224
8115
8201
8180
8093
8206
7963
8211
7890
8225
7907
8217
7990
8170
8052
8072
8103
8057
8161
8062
8140
8087
8076
8163
8032
8266
8017
8301
8001
8244
8015
8151
8058
8036
8092
7898
8090
7851
8086
7831
8003
7835
7919
7912
7902
7996
7916
8048
7994
8158
8235
8225
8392
8201
8448
8126
8468
8101
8411
8137
8303
8126
8107
8062
7970
8081
7943
8087
7962
8040
8015
7988
8128
8046
8306
8181
8492
8420
8573
8519
8436
8465
8205
8384
8053
8376
8053
8337
8069
8226
8079
8103
8095
7987
8025
7882
7927
7860
7854
7951
7849
8115
7888
8194
7886
8183
7946
8155
8092
8216
8294
8224
8435
8229
8426
8158
8341
8148
8170
8092
8018
8100
7989
8155
8110
8305
8387
8414
8499
8201
8331
7953
8283
7922
8236
7931
8161
7993
8074
8093
8113
8292
8151
8224
8056
8172
8249
8243
8325
8106
8304
8074
8312
8116
8263
8183
8212
8279
8106
8270
7967
8232
7923
8199
7905
8062
7927
7968
7979
7926
8027
7948
8047
8053
8136
8259
8107
8330
8134
8537
8277
8541
8184
8353
8134
8159
8107
8006
8160
7997
8212
8025
8193
8043
8158
8195
8164
8277
8091
8182
8002
8097
8013
8011
8098
7961
8264
8056
8429
8053
8332
7948
8135
7959
8075
8044
8024
8100
7972
8038
7911
7972
8003
8041
8242
8173
8505
8375
8696
8488
8644
8449
8454
8453
8307
8412
8094
8320
7996
8256
7990
8171
8034
8066
8062
7987
8071
7982
8093
8038
8062
8125
7981
8190
7939
8251
7915
8285
8011
8267
8046
8163
8095
8009
8136
8036
8248
8053
8187
8033
8071
8045
7953
8091
8017
8283
8169
8371
8339
8394
8382
8185
8347
8070
8363
8009
8323
7991
8218
7996
8095
8042
8024
8088
7999
8107
8036
8093
8083
8034
8169
7985
8250
8025
8348
8039
8219
7997
8043
7992
7918
8046
7871
8137
7925
8220
8022
8201
8050
8057
8028
7987
8163
8127
8390
8432
8505
8502
8269
8402
8128
8406
8053
8359
8007
8265
8002
8150
8063
8086
8195
8108
8252
8066
8228
8133
8210
8232
8168
8315
8125
8302
8084
8233
8065
8122
8153
8097
8296
8067
8369
8027
8349
8039
8287
8037
8169
8104
8110
8170
8086
8167
8012
8012
7975
7924
8062
7885
8127
7906
8253
7983
8251
8056
8224
8213
8197
8263
8064
8300
8078
8343
8128
8271
8113
8180
8267
8207
8291
8115
8214
8106
8173
8232
8182
8358
8072
8339
7992
8337
7990
8272
8015
8178
8069
8109
8155
8059
8191
8044
8170
8082
8114
8143
8055
8204
8010
8240
8018
8226
8065
8160
8148
8109
8244
8019
8261
7942
8265
7986
8262
8043
8167
8081
8107
8156
8078
8166
8074
8137
8126
8079
8209
8021
8273
7966
8281
7975
8251
7994
8138
8059
8100
8178
8057
8252
8045
8279
8083
8245
8116
8142
8190
8115
8256
8130
8284
8135
8147
8118
8034
8180
7960
8255
7937
8327
8038
8391
8147
8315
8152
8162
8144
8043
8132
7982
8071
7994
8040
8069
7964
8096
7910
8152
7962
8221
8055
8235
8209
8184
8275
8115
8370
8080
8374
8085
8351
8163
8291
8198
8195
8213
8094
8190
8104
8186
8190
8165
8298
8138
8399
8087
8401
8036
8321
8031
8214
8093
8125
8165
8047
8171
7972
8196
8021
8145
8068
8129
8205
8114
8265
8103
8312
8186
8294
8275
8248
8333
8125
8370
8046
8379
8033
8344
8064
8260
8095
8159
8161
8097
8191
8071
8158
8082
8104
8124
8027
8191
7977
8245
7977
8237
8019
8188
8108
8134
8198
8045
8237
7985
8254
7978
8222
8024
8168
8083
8085
8133
8052
8164
8067
8157
8107
8068
8172
7995
8235
7948
8283
7943
8283
7988
8215
8056
8133
8127
8058
8185
8029
8204
8049
8170
8109
8121
8192
8076
8245
8058
8249
8079
8209
8144
8140
8224
8061
8300
8010
8324
7981
8294
8009
8218
8051
8128
8102
8066
8154
8060
8160
8108
8139
8184
8084
8272
8043
8327
8042
8349
8083
8278
8137
8190
8207
8108
8262
8027
8266
8012
8246
8047
8191
8120
8135
8173
8086
8214
8099
8200
8162
8148
8227
8074
8304
8017
8342
7995
8323
8004
8258
8064
8177
8153
8108
8199
8066
8215
8062
8156
8101
8106
8188
8072
8263
8054
8249
8041
8189
8074
8089
8119
7975
8166
7902
8192
7886
8198
7918
8129
7978
8095
8111
8113
8207
8116
8229
8173
8207
8262
8212
8431
8242
8506
8189
8478
8160
8369
8154
8232
8186
8119
8218
8023
8229
8001
8222
8052
8183
8124
8131
8214
8099
8231
8092
8204
8132
8140
8180
8033
8231
7966
8291
7944
8301
7986
8269
8070
8217
8162
8156
8211
8104
8251
8127
8251
8194
8171
8228
8079
8246
7983
8210
7992
8197
8058
8141
8146
8051
8209
7983
8262
7978
8299
8049
8284
8106
8192
8140
8110
8171
8075
8173
8095
8115
8136
8023
8176
7933
8211
7892
8207
7915
8191
8006
8183
8166
8146
8225
8064
8248
8047
8266
8101
8217
8177
8178
8270
8141
8284
8107
8237
8130
8167
8189
8077
8260
8002
8307
7970
8302
7983
8267
8030
8187
8088
8089
8143
8052
8148
8035
8126
8101
8096
8175
8045
8247
8001
8269
8009
8243
8088
8224
8214
8175
8294
8085
8324
8029
8299
8026
8262
8089
8190
8160
8127
8211
8098
8209
8111
8155
8158
8060
8215
7989
8275
7955
8291
7961
8252
8011
8176
8090
8112
8170
8050
8217
8055
8241
8098
8211
8187
8143
8241
8087
8251
8070
8232
8101
8165
8160
8090
8239
8011
8298
7978
8317
7986
8289
8044
8219
8118
8147
8181
8097
8201
8097
8186
8134
8116
8205
8043
8259
7998
8281
7999
8265
8063
8220
8141
8127
8208
8047
8252
8004
8264
8002
8210
8055
8143
8127
8100
8179
8078
8201
8107
8179
8183
8141
8280
8064
8322
7998
8331
7987
8309
8034
8240
8114
8158
8181
8097
8229
8076
8244
8106
8194
8160
8133
8237
8077
8268
8057
8248
8081
8200
8151
8117
8222
8026
8272
7973
8300
7985
8278
8030
8213
8094
8144
8164
8089
8181
8084
8173
8122
8105
8193
8042
8257
7978
8278
7967
8252
8002
8203
8085
8122
8167
8049
8230
8014
8262
8039
8250
8100
8200
8186
8148
8254
8124
8271
8149
8224
8177
8142
8232
8043
8301
7986
8323
7971
8300
7999
8229
8069
8163
8147
8088
8202
8066
8207
8097
8180
8148
8104
8215
8042
8251
8013
8243
8050
8212
8135
8143
8208
8049
8264
7982
8271
7963
8254
7998
8191
8070
8124
8146
8095
8188
8100
8198
8155
8165
8234
8093
8304
8034
8349
8030
8352
8059
8278
8110
8175
8171
8078
8209
8022
8253
8056
8249
8109
8168
8128
8066
8135
7992
8135
8004
8129
8076
8087
8171
8013
8269
8014
8392
8073
8435
8123
8362
8157
8222
8180
8146
8229
8119
8245
8125
8191
8178
8114
8229
8045
8264
8005
8246
7986
8178
8031
8077
8110
8004
8192
7967
8246
7963
8253
8022
8241
8126
8178
8186
8114
8206
8109
8216
8167
8177
8229
8090
8272
8007
8313
7979
8312
8004
8260
8058
8181
8149
8126
8235
8079
8248
8060
8235
8100
8175
8159
8100
8212
8050
8225
8051
8194
8101
8132
8178
8043
8248
7973
8289
7947
8279
7972
8233
8040
8175
8126
8106
8189
8092
8191
8106
8159
8144
8091
8216
8030
8273
7998
8284
8010
8230
8062
8169
8147
8080
8219
8023
8280
8006
8271
8040
8219
8101
8166
8184
8113
8221
8089
8194
8115
8146
8177
8064
8251
8002
8306
7973
8313
7995
8282
8062
8211
8143
8138
8206
8074
8231
8070
8218
8095
8149
8148
8071
8200
8019
8218
8021
8214
8086
8143
8156
8078
8247
8017
8319
7999
8332
8029
8297
8085
8237
8169
8171
8212
8114
8219
8115
8175
8172
8105
8234
8044
8291
8002
8305
8014
8269
8060
8204
8149
8115
8213
8046
8256
8030
8269
8041
8215
8105
8146
8158
8092
8214
8085
8209
8102
8152
8161
8065
8231
8001
8301
7973
8323
7985
8298
8038
8224
8115
8142
8177
8078
8215
8071
8212
8109
8154
8181
8090
8245
8053
8278
8053
8253
8096
8179
8144
8102
8220
8016
8269
7980
8295
7987
8259
8045
8197
8105
8125
8167
8087
8170
8082
8158
8144
8095
8213
8021
8277
7987
8314
8002
8283
8034
8216
8113
8136
8182
8053
8238
8043
8266
8066
8223
8126
8180
8202
8117
8242
8082
8217
8085
8168
8154
8099
8231
8021
8300
7976
8319
7971
8301
8037
8232
8106
8151
8156
8081
8196
8074
8188
8113
8142
8169
8077
8246
8037
8277
8021
8261
8055
8207
8139
8143
8221
8040
8271
8013
8305
8016
8277
8059
8215
8131
8149
8194
8109
8213
8110
8189
8162
8124
8217
8031
8275
7980
8310
7978
8276
8008
8229
8090
8152
8168
8077
8223
8051
8251
8075
8212
8118
8151
8188
8092
8241
8066
8233
8068
8181
8143
8119
8220
8036
8282
7989
8322
7973
8300
8021
8248
8099
8183
8174
8117
8211
8097
8199
8120
8148
8193
8088
8257
8033
8295
8001
8263
8021
8206
8097
8133
8172
8050
8237
7999
8278
8022
8283
8069
8217
8127
8148
8192
8094
8206
8093
8191
8146
8119
8205
8025
8256
7972
8304
7960
8287
7984
8228
8052
8157
8134
8083
8203
8059
8242
8078
8209
8124
8146
8201
8098
8274
8088
8289
8089
8237
8154
8152
8215
8065
8274
7999
8310
7975
8297
8005
8234
8059
8169
8145
8101
8185
8087
8178
8105
8134
8165
8061
8229
7998
8273
7977
8262
7994
8220
8075
8163
8148
8061
8212
8016
8256
8019
8257
8056
8197
8120
8134
8193
8091
8214
8077
8181
8116
8126
8196
8053
8269
7991
8307
7935
8251
7899
8153
7940
8063
8021
8022
8120
8031
8200
8063
8193
8134
8170
8252
8152
8351
8162
8411
8220
8406
8282
8329
8317
8167
8306
8043
8327
7996
8305
8023
8257
8084
8202
8181
8176
8258
8154
8265
8184
8219
8241
8151
8291
8048
8317
8004
8320
8003
8252
8045
8167
8115
8080
8194
8024
8228
8013
8229
8051
8192
8128
8128
8184
8065
8190
8034
8162
8074
8120
8147
8031
8222
7962
8276
7942
8285
7958
8250
8019
8182
8106
8119
8175
8071
8202
8081
8174
8109
8110
8177
8052
8249
8030
8290
8043
8249
8098
8183
8158
8093
8232
8023
8273
7983
8276
7997
8232
8053
8162
8114
8104
8170
8070
8167
8090
8145
8156
8083
8234
8022
8304
7980
8309
7981
8267
8031
8207
8131
8136
8199
8073
8254
8065
8253
8083
8201
8137
8133
8203
8076
8229
8056
8217
8105
8166
8168
8093
8235
8010
8298
7969
8312
7975
8282
8025
8204
8097
8136
8168
8082
8191
8079
8180
8122
8124
8194
8058
8256
8014
8285
8010
8266
8066
8210
8147
8140
8222
8060
8282
8016
8288
8029
8262
8079
8190
8145
8130
8203
8098
8207
8101
8180
8170
8100
8235
8028
8302
7983
8323
7970
8297
8024
8232
8111
8158
8189
8086
8229
8064
8240
8080
8182
8131
8122
8208
8069
8258
8060
8242
8092
8208
8166
8129
8240
8046
8310
7987
8313
7979
8286
8023
8229
8105
8164
8174
8111
8205
8104
8190
8130
8124
8197
8072
8269
8029
8309
8007
8290
8041
8218
8106
8139
8181
8058
8248
8015
8268
8020
8242
8064
8177
8134
8107
8182
8080
8201
8085
8182
8149
8115
8220
8037
8298
7985
8323
7971
8306
8006
8242
8080
8174
8167
8099
8218
8078
8238
8096
8192
8144
8120
8218
8068
8266
8040
8248
8059
8208
8130
8130
8189
8032
8248
7980
8296
7979
8273
8020
8220
8078
8149
8143
8098
8177
8082
8178
8120
8122
8179
8037
8236
7995
8292
7972
8278
8010
8237
8079
8156
8171
8104
8248
8054
8278
8052
8263
8108
8218
8188
8158
8250
8104
8239
8102
8218
8151
8149
8227
8065
8308
8008
8330
7979
8316
8007
8260
8065
8185
8148
8105
8188
8067
8201
8083
8156
8128
8094
8203
8041
8258
8017
8263
8044
8214
8105
8151
8176
8059
8249
8008
8295
8005
8296
8031
8233
8081
8150
8139
8095
8172
8077
8181
8109
8132
8171
8051
8248
8003
8309
7981
8316
8011
8277
8088
8204
8163
8127
8229
8064
8255
8064
8243
8098
8185
8151
8120
8225
8070
8233
8073
8217
8125
8144
8190
8056
8260
7998
8315
7974
8315
7992
8252
8047
8195
8141
8139
8203
8102
8207
8106
8185
8148
8109
8213
8037
8256
7995
8252
7997
8225
8057
8161
8154
8093
8232
8015
8263
8005
8281
8032
8221
8080
8158
8137
8095
8180
8083
8191
8109
8136
8174
8074
8259
8017
8315
7990
8333
8003
8282
8059
8224
8152
8158
8229
8095
8247
8072
8240
8100
8178
8154
8112
8216
8061
8238
8049
8211
8093
8156
8164
8077
8236
8008
8308
7981
8312
7996
8284
8045
8201
8127
8135
8173
8083
8180
8087
8157
8135
8105
8211
8039
8273
7999
8298
8009
8270
8059
8201
8147
8122
8213
8044
8265
8027
8274
8046
8246
8106
8180
8173
8114
8218
8085
8209
8101
8155
8167
8086
8238
8016
8297
7960
8308
7962
8270
8009
8195
8069
8120
8152
8063
8194
8041
8183
8086
8147
8147
8088
8215
8048
8266
8049
8256
8102
8210
8187
8141
8265
8057
8314
8005
8314
7999
8288
8050
8207
8104
8146
8188
8113
8223
8111
8196
8165
8119
8222
8042
8273
7996
8310
8007
8314
8068
8254
8149
8169
8202
8062
8246
8026
8258
8035
8205
8076
8135
8135
8087
8187
8055
8188
8061
8147
8131
8074
8204
8006
8289
7971
8319
7985
8311
8038
8254
8129
8197
8202
8137
8242
8102
8242
8137
8197
8195
8116
8256
8058
8280
8035
8260
8055
8203
8121
8116
8196
8036
8260
7983
8286
7988
8265
8030
8202
8098
8129
8154
8089
8180
8082
8166
8124
8101
8200
8038
8265
7983
8309
7981
8278
8008
8234
8094
8155
8176
8094
8236
8053
8263
8061
8232
8116
8176
8183
8104
8232
8068
8225
8079
8185
8136
8113
8205
8041
8280
7978
8317
7970
8300
8003
8241
8077
8174
8149
8104
8201
8084
8206
8107
8151
8166
8083
8229
8031
8274
8011
8266
8028
8216
8108
8152
8193
8060
8250
8014
8293
8014
8285
8054
8220
8119
8166
8184
8105
8217
8104
8201
8151
8144
8211
8059
8284
8003
8325
7980
8307
7998
8249
8059
8165
8150
8099
8200
8051
8228
8054
8203
8095
8132
8154
8081
8218
8030
8218
8048
8197
8110
8141
8207
8071
8276
8007
8321
7982
8320
8022
8263
8084
8206
8166
8128
8198
8084
8170
8089
8126
8133
8056
8212
8013
8269
7993
8280
8013
8238
8093
8193
8192
8114
8264
8065
8316
8059
8320
8107
8264
8145
8172
8191
8116
8231
8093
8201
8131
8141
8197
8063
8261
7996
8315
7965
8312
7979
8248
8025
8168
8112
8084
8171
8044
8196
8051
8178
8094
8122
8175
8077
8251
8081
8318
8107
8278
8153
8202
8217
8114
8279
8037
8328
8002
8315
8010
8250
8049
8167
8110
8092
8132
8035
8124
8036
8089
8094
8026
8180
7998
8279
7988
8303
8015
8282
8092
8224
8181
8158
8274
8114
8326
8106
8339
8128
8266
8148
8178
8204
8105
8240
8096
8212
8118
8148
8174
8063
8237
7990
8296
7950
8291
7948
8247
8009
8177
8073
8088
8151
8055
8188
8062
8174
8110
8131
8175
8069
8251
8038
8285
8050
8265
8111
8204
8184
8122
8249
8035
8303
7999
8305
8011
8255
8055
8188
8130
8130
8188
8090
8189
8095
8149
8152
8088
8227
8019
8278
7969
8295
7968
8254
8021
8201
8110
8122
8191
8058
8240
8035
8245
8059
8194
8111
8131
8181
8077
8215
8059
8213
8088
8169
8165
8097
8244
8028
8314
7981
8338
8001
8311
8047
8231
8121
8162
8190
8105
8219
8095
8197
8123
8135
8180
8067
8249
8027
8286
8009
8250
8043
8195
8128
8114
8200
8033
8260
8004
8302
8032
8285
8077
8206
8133
8123
8185
8085
8198
8094
8171
8158
8088
8213
8021
8280
7969
8304
7962
8277
8011
8215
8095
8151
8185
8088
8234
8066
8260
8089
8218
8146
8155
8227
8108
8270
8079
8249
8089
8193
8152
8118
8230
8041
8300
7994
8323
7984
8301
8022
8230
8091
8156
8159
8101
8199
8091
8192
8121
8129
8183
8069
8270
8025
8297
8010
8275
8033
8224
8122
8149
8200
8084
8266
8028
8285
8021
8264
8072
8197
8135
8126
8190
8088
8206
8090
8179
8151
8118
8213
8037
8288
7975
8305
7957
8292
7990
8226
8064
8159
8144
8077
8193
8043
8201
8058
8163
8114
8115
8186
8067
8248
8045
8246
8062
8209
8141
8145
8214
8052
8277
8006
8335
8014
8334
8062
8272
8130
8197
8187
8134
8212
8103
8199
8129
8148
8187
8069
8247
8010
8297
7989
8287
8005
8233
8080
8152
8155
8078
8223
8031
8269
8030
8251
8071
8189
8127
8120
8193
8079
8212
8083
8191
8132
8129
8203
8045
8269
7993
8322
7970
8320
8006
8260
8068
8191
8151
8129
8216
8082
8242
8105
8205
8153
8138
8220
8080
8280
8054
8283
8057
8232
8108
8144
8177
8050
8238
7982
8287
7974
8286
8017
8233
8076
8157
8137
8097
8176
8083
8181
8112
8124
8174
8070
8244
8006
8305
7985
8303
7998
8255
8058
8188
8153
8112
8217
8050
8254
8051
8254
8096
8210
8153
8135
8217
8092
8234
8085
8209
8128
8150
8189
8059
8259
7991
8312
7969
8315
7989
8265
8047
8193
8136
8132
8180
8065
8171
8063
8147
8111
8099
8193
8049
8268
8019
8287
8027
8240
8085
8179
8175
8112
8255
8044
8307
8020
8311
8045
8270
8103
8195
8170
8120
8200
8088
8197
8118
8168
8188
8090
8256
8020
8304
7972
8310
7987
8275
8045
8205
8122
8121
8187
8056
8226
8045
8230
8075
8160
8126
8098
8193
8061
8231
8053
8222
8098
8157
8161
8067
8238
8008
8306
7985
8326
8001
8295
8055
8219
8139
8160
8197
8107
8209
8108
8189
8165
8135
8226
8073
8291
8020
8294
8009
8256
8047
8188
8131
8112
8211
8038
8257
7999
8262
8000
8200
8048
8131
8117
8088
8175
8070
8197
8104
8162
8167
8092
8244
8030
8319
7997
8351
8016
8336
8070
8256
8139
8173
8205
8100
8239
8076
8239
8093
8184
8156
8115
8221
8063
8261
8054
8246
8083
8190
8160
8107
8233
8031
8281
7979
8302
7985
8279
8035
8209
8092
8137
8160
8089
8176
8074
8155
8119
8103
8197
8042
8259
7992
8302
8005
8286
8043
8227
8114
8139
8183
8059
8241
8035
8285
8057
8256
8104
8198
8169
8120
8207
8089
8223
8093
8172
8147
8103
8213
8021
8296
7977
8318
7965
8292
8008
8228
8080
8159
8153
8090
8205
8062
8202
8086
8154
8141
8094
8208
8049
8267
8030
8253
8056
8202
8128
8123
8203
8048
8279
8004
8314
8010
8297
8053
8235
8117
8167
8172
8105
8191
8101
8193
8145
8139
8213
8063
8286
8017
8319
7996
8309
8028
8245
8093
8164
8165
8074
8228
8029
8255
8044
8214
8083
8152
8141
8090
8188
8066
8226
8081
8206
8154
8138
8216
8050
8284
7995
8328
7977
8319
8020
8266
8090
8191
8155
8124
8200
8083
8205
8091
8155
8146
8091
8215
8030
8257
8008
8258
8026
8214
8100
8147
8184
8074
8256
8018
8312
8015
8297
8053
8235
8109
8170
8178
8114
8219
8101
8190
8126
8138
8194
8058
8254
7986
8300
7969
8304
7998
8256
8070
8190
8162
8126
8227
8066
8260
8065
8240
8108
8182
8186
8124
8252
8088
8263
8072
8203
8116
8130
8184
8046
8261
7994
8312
7976
8313
8002
8260
8059
8191
8142
8119
8191
8089
8189
8098
8149
8138
8083
8207
8025
8269
7997
8279
8016
8239
8084
8171
8166
8103
8242
8035
8289
8021
8287
8050
8233
8119
8169
8159
8102
8222
8091
8201
8110
8144
8183
8058
8243
7985
8291
7952
8296
7970
8251
8029
8177
8117
8115
8185
8059
8216
8064
8211
8107
8163
8173
8103
8247
8068
8279
8071
8242
8112
8163
8175
8085
8248
8015
8311
7984
8321
8017
8288
8071
8222
8161
8170
8222
8127
8233
8120
8181
8177
8122
8235
8042
8284
7985
8280
7984
8248
8037
8193
8131
8103
8199
8042
8259
8023
8271
8043
8214
8106
8151
8177
8102
8212
8084
8213
8109
8158
8170
8072
8239
8007
8307
7973
8329
7990
8301
8033
8212
8113
8140
8189
8098
8223
8080
8207
8108
8146
8173
8090
8246
8044
8266
8031
8244
8071
8184
8147
8108
8228
8025
8282
7989
8307
8004
8265
8051
8200
8118
8132
8182
8092
8186
8099
8167
8155
8103
8219
8035
8294
7989
8309
7989
8283
8038
8220
8126
8145
8200
8075
8254
8041
8262
8060
8222
8110
8146
8179
8089
8227
8065
8216
8086
8165
8152
8093
8220
8005
8291
7970
8316
7980
8298
8024
8221
8091
8156
8170
8095
8199
8072
8181
8109
8137
8170
8082
8255
8046
8285
8025
8261
8055
8209
8132
8138
8218
8063
8284
8021
8322
8025
8290
8074
8230
8151
8170
8200
8111
8205
8094
8168
8139
8098
8205
8025
8277
7980
8305
7968
8282
8012
8230
8086
8152
8171
8077
8225
8052
8248
8067
8204
8111
8137
8169
8079
8238
8063
8232
8080
8203
8152
8125
8221
8042
8289
7995
8333
7992
8322
8042
8260
8113
8192
8182
8117
8214
8092
8205
8123
8160
8186
8086
8237
8023
8283
8002
8267
8028
8218
8101
8140
8179
8057
8243
8016
8284
8016
8271
8062
8205
8120
8130
8168
8091
8207
8091
8189
8141
8133
8211
8044
8270
7993
8318
7973
8313
8008
8261
8091
8194
8171
8128
8225
8076
8249
8082
8208
8124
8141
8184
8072
8225
8035
8228
8044
8190
8103
8123
8184
8036
8246
7976
8295
7960
8285
7997
8229
8066
8175
8155
8127
8214
8116
8220
8132
8164
8191
8094
8271
8042
8314
8017
8314
8039
8263
8108
8192
8190
8123
8260
8059
8299
8045
8283
8077
8216
8124
8134
8183
8081
8204
8073
8183
8119
8129
8195
8049
8252
7984
8309
7963
8305
7983
8254
8046
8189
8127
8118
8200
8076
8220
8079
8195
8124
8127
8181
8069
8246
8027
8244
8032
8216
8092
8151
8165
8052
8235
8001
8303
7989
8307
8020
8268
8077
8186
8134
8122
8195
8094
8190
8102
8132
8161
8071
8222
8003
8287
7985
8302
8007
8272
8080
8209
8158
8125
8223
8067
8269
8067
8291
8100
8231
8142
8147
8210
8106
8244
8082
8220
8116
8158
8188
8095
8263
8019
8323
7989
8332
8002
8298
8050
8216
8135
8150
8182
8091
8211
8089
8198
8129
8135
8199
8070
8267
8026
8274
8013
8227
8055
8168
8132
8090
8213
8005
8262
7982
8280
7996
8238
8053
8167
8115
8105
8167
8082
8186
8096
8152
8164
8083
8239
8022
8309
7991
8317
7989
8295
8050
8232
8133
8147
8202
8080
8245
8054
8251
8083
8194
8129
8126
8200
8081
8240
8056
8217
8091
8167
8160
8097
8240
8014
8302
7971
8311
7987
8290
8031
8217
8100
8147
8169
8092
8203
8088
8191
8139
8140
8200
8059
8253
8007
8287
7998
8258
8050
8211
8136
8141
8221
8064
8275
8021
8291
8027
8254
8072
8186
8130
8115
8186
8084
8200
8094
8166
8148
8087
8218
8020
8281
7973
8314
7979
8311
8044
8251
8120
8166
8174
8085
8221
8065
8233
8078
8190
8133
8120
8202
8065
8246
8048
8242
8076
8192
8139
8116
8216
8033
8286
7995
8323
7987
8296
8026
8233
8097
8167
8171
8108
8214
8110
8203
8142
8140
8197
8063
8263
8010
8300
8004
8299
8040
8241
8126
8169
8194
8090
8257
8034
8282
8035
8249
8073
8192
8145
8125
8202
8086
8207
8080
8173
8142
8108
8204
8027
8271
7975
8316
7975
8304
8010
8254
8079
8180
8170
8124
8214
8084
8237
8101
8205
8155
8132
8224
8075
8269
8040
8244
8042
8200
8118
8131
8195
8054
8264
7997
8300
7985
8289
8012
8221
8088
8170
8167
8105
8198
8094
8185
8120
8130
8188
8056
8251
8004
8302
7993
8305
8025
8253
8094
8182
8167
8100
8232
8051
8270
8051
8258
8086
8193
8141
8111
8211
8086
8230
8086
8203
8121
8121
8187
8036
8258
7974
8307
7952
8301
7985
8252
8056
8177
8138
8123
8194
8077
8205
8091
8163
8124
8103
8199
8048
8265
8020
8263
8031
8237
8110
8165
8183
8085
8251
8022
8301
8011
8303
8044
8249
8094
8172
8167
8112
8197
8088
8190
8115
8147
8187
8067
8240
7995
8302
7975
8306
7988
8256
8051
8185
8146
8131
8216
8056
8241
8045
8223
8073
8162
8138
8108
8211
8066
8232
8068
8214
8124
8160
8189
8087
8269
8009
8327
7992
8336
8004
8289
8063
8207
8135
8144
8195
8105
8217
8112
8190
8143
8109
8213
8048
8272
8009
8291
8020
8247
8061
8175
8139
8096
8218
8025
8265
8002
8271
8024
8224
8076
8164
8143
8107
8186
8090
8209
8118
8169
8189
8096
8268
8034
8321
7995
8338
7993
8285
8040
8210
8114
8130
8184
8063
8220
8050
8224
8079
8155
8132
8095
8209
8041
8222
8032
8208
8078
8173
8153
8084
8227
8002
8278
7967
8301
7986
8274
8047
8215
8117
8149
8183
8111
8213
8114
8211
8203
8187
8264
8090
8315
8034
8328
8028
8313
8071
8238
8152
8150
8224
8078
8272
8030
8284
8048
8244
8091
8169
8154
8108
8191
8087
8215
8103
8164
8151
8085
8225
8017
8295
7971
8316
7966
8289
8010
8218
8087
8147
8163
8081
8197
8053
8183
8072
8142
8136
8085
8211
8030
8248
8025
8238
8053
8186
8133
8119
8229
8046
8289
8004
8325
8016
8304
8062
8243
8150
8181
8189
8113
8205
8092
8174
8128
8107
8199
8036
8269
7991
8304
7982
8278
8020
8217
8097
8144
8171
8068
8236
8034
8266
8045
8222
8091
8154
8146
8088
8189
8059
8207
8074
8179
8150
8118
8221
8038
8303
8000
8338
7994
8326
8033
8264
8104
8184
8173
8120
8219
8097
8234
8114
8178
8174
8092
8216
8033
8257
8010
8246
8023
8200
8099
8123
8186
8051
8260
8005
8295
7997
8283
8045
8224
8108
8160
8177
8105
8210
8106
8192
8149
8138
8211
8064
8281
8006
8318
7983
8313
8022
8261
8103
8194
8183
8118
8225
8059
8240
8054
8230
8099
8155
8156
8089
8221
8049
8218
8058
8187
8111
8117
8199
8043
8267
7989
8317
7972
8307
8003
8248
8068
8176
8147
8115
8193
8085
8188
8108
8177
8184
8107
8241
8053
8289
8010
8288
8034
8252
8101
8160
8173
8088
8243
8025
8290
8017
8278
8047
8224
8109
8165
8182
8110
8223
8097
8204
8142
8147
8198
8064
8263
7998
8311
7970
8312
7991
8265
8057
8196
8151
8134
8215
8076
8242
8076
8227
8105
8156
8182
8091
8231
8051
8241
8057
8217
8110
8153
8190
8089
8270
8028
8337
8007
8334
8031
8283
8073
8194
8131
8115
8179
8090
8187
8099
8164
8163
8095
8217
8019
8275
7991
8293
7995
8241
8049
8180
8138
8105
8214
8035
8257
8019
8258
8040
8210
8095
8143
8167
8099
8208
8086
8207
8126
8160
8184
8076
8250
8010
8317
7977
8337
8005
8307
8054
8227
8136
8149
8200
8091
8223
8082
8209
8113
8148
8179
8080
8245
8039
8246
8021
8203
8047
8141
8118
8048
8207
7997
8265
7966
8285
7983
8244
8042
8189
8112
8128
8186
8093
8203
8115
8182
8174
8114
8236
8046
8304
8006
8331
8027
8321
8096
8258
8179
8199
8272
8128
8305
8079
8295
8079
8220
8118
8156
8188
8097
8229
8067
8203
8092
8164
8167
8079
8232
8007
8291
7960
8313
7974
8281
8017
8217
8098
8139
8162
8086
8202
8080
8182
8108
8147
8181
8085
8249
8026
8264
8012
8246
8054
8191
8128
8122
8218
8048
8294
8013
8313
8018
8274
8053
8201
8118
8123
8160
8078
8192
8089
8162
8145
8096
8200
8017
8267
7960
8290
7957
8267
8002
8221
8095
8146
8176
8086
8242
8065
8263
8083
8240
8136
8162
8205
8106
8254
8082
8248
8106
8201
8150
8095
8189
7995
8245
7953
8285
7945
8270
7995
8216
8071
8149
8147
8084
8188
8075
8198
8128
8168
8209
8127
8312
8079
8333
8034
8296
8049
8223
8112
8144
8183
8047
8240
7992
8263
7993
8240
8034
8180
8115
8142
8194
8101
8206
8083
8163
8127
8120
8219
8064
8322
8050
8402
8075
8410
8134
8387
8229
8313
8288
8220
8326
8166
8334
8160
8280
8170
8142
8157
8039
8174
7989
8170
7980
8110
8026
8044
8125
7962
8188
7912
8237
7924
8253
7971
8200
8042
8144
8114
8099
8196
8099
8193
8113
8136
8196
8117
8323
8123
8416
8118
8399
8118
8315
8144
8212
8205
8123
8265
8056
8289
8033
8262
8048
8185
8103
8121
8176
8092
8213
8076
8181
8119
8125
8184
8032
8249
7968
8289
7941
8286
7972
8242
8041
8165
8109
8075
8156
8036
8185
8039
8156
8100
8117
8179
8060
8245
8035
8277
8063
8240
8124
8167
8182
8075
8257
8006
8306
7984
8297
8013
8247
8069
8175
8143
8113
8183
8085
8157
8070
8091
8108
8016
8179
7959
8243
7941
8246
7939
8195
7996
8126
8077
8044
8157
8002
8215
8007
8231
8073
8227
8188
8207
8265
8143
8294
8167
8308
8213
8247
8263
8127
8297
8042
8347
7992
8326
7991
8274
8037
8188
8105
8098
8160
8054
8179
8054
8143
8078
8081
8156
8043
8229
7986
8231
8007
8231
8090
8203
8212
8174
8336
8153
8429
8132
8411
8114
8347
8164
8274
8221
8197
8250
8126
8209
8096
8122
8125
8044
8196
7992
8289
7966
8296
7963
8253
8024
8200
8114
8136
8198
8075
8240
8042
8247
8089
8212
8154
8148
8220
8105
8287
8113
8271
8147
8214
8204
8132
8278
8043
8326
7993
8339
7995
8291
8027
8205
8081
8105
8134
8047
8151
8053
8150
8105
8098
8162
8035
8246
8008
8288
8009
8246
8020
8156
8094
8086
8176
8009
8224
7962
8224
7964
8187
8018
8127
8083
8066
8131
8024
8132
8048
8134
8135
8120
8273
8097
8386
8082
8426
8077
8399
8115
8293
8157
8190
8186
8069
8195
8008
8143
7991
8077
8024
8011
8094
7972
8131
7956
8168
8027
8184
8168
8160
8247
8041
8301
8032
8378
8054
8354
8082
8272
8167
8225
8218
8163
8259
8146
8260
8203
8205
8286
8145
8334
8084
8353
8045
8338
8116
8293
8168
8182
8204
8073
8255
8025
8267
8021
8237
8076
8182
8131
8108
8173
8070
8194
8082
8169
8135
8088
8180
7993
8244
7945
8291
7941
8279
7960
8181
8011
8113
8119
8070
8180
8027
8153
8018
8102
8081
8075
8147
7971
8127
7917
8144
7979
8168
8103
8123
8211
8069
8301
8041
8364
8076
8407
8193
8438
8312
8339
8272
8181
8219
8089
8176
8102
8088
8136
7992
8161
7895
8176
7899
8197
7915
8144
7993
8080
8092
8029
8212
8065
8324
8117
8317
8198
8365
8389
8390
8466
8328
8459
8271
8338
8217
8177
8234
8066
8305
8011
8338
7968
8302
7987
8248
8059
8174
8132
8095
8163
8043
8173
8070
8146
8128
8109
8227
8092
8314
8072
8339
8088
8258
8120
8176
8218
8106
8283
8027
8306
7995
8276
8007
8195
8037
8104
8111
8078
8180
8091
8198
8117
8134
8172
8033
8198
7932
8209
7891
8205
7896
8169
7987
8135
8110
8086
8204
8042
8198
7971
8138
8004
8093
8063
8012
8099
7984
8139
7995
8140
8052
8100
8172
8064
8265
8011
8339
8001
8347
8056
8326
8034
8093
8014
8015
8073
7983
8099
8007
8069
8042
8027
8158
8039
8295
8070
8400
8204
8487
8337
8438
8427
8355
8481
8265
8526
8266
8506
8219
8339
8129
8183
8162
8107
8170
8018
8082
8003
7999
7971
7840
7980
7732
8021
7715
8038
7727
8007
7792
7977
7959
8035
8206
8196
8460
8359
8539
8428
8544
8565
8545
8684
8501
8625
8397
8525
8353
8379
8327
8186
8257
7934
8163
7789
8042
7687
7952
7748
7913
7844
7865
7903
7821
7929
7844
7925
7918
7920
8058
7953
8275
8123
8524
8361
8723
8547
8678
8590
8515
8510
8244
8341
8017
8247
7977
8137
8031
8126
8142
8060
8082
7909
7953
7826
7864
7904
7853
8036
7868
8260
8044
8461
8134
8452
8266
8469
8360
8401
8463
8343
8414
8199
8317
8159
8164
8141
8066
8161
7996
8194
7981
8165
8012
8128
8116
8054
8171
7928
8169
7836
8100
7753
7988
7770
7933
7871
7919
7952
7890
8025
7971
8074
8109
8188
8444
8350
8583
8331
8614
8288
8529
8243
8364
8249
8246
8273
8140
8358
8215
8498
8323
8472
8321
8321
8276
8161
8244
8080
8198
8035
8047
7971
7857
7959
7742
7991
7685
8041
7731
8055
7781
8000
7917
8026
8076
8041
8245
8194
8354
8276
8333
8365
8319
8415
8175
8401
8170
8399
8178
8273
8171
8115
8119
7886
8065
7793
8071
7791
8046
7853
8002
7899
7913
7913
7853
7987
7953
8067
8056
8076
8241
8144
8425
8158
8447
8038
8268
7990
8261
8270
8488
8563
8431
8536
8371
8580
8358
8454
8293
8323
8325
8213
8306
8134
8295
8151
8246
8217
8207
8291
8077
8314
8006
8336
7974
8286
7983
8208
8036
8094
8047
7997
8069
7935
8014
7926
7974
7989
7923
8076
7889
8104
7827
8078
7888
8111
8020
8106
8234
8179
8374
8072
8301
7951
8159
7931
8093
8022
8099
8196
8200
8363
8229
8262
8152
8107
8178
8038
8268
8000
8343
8039
8456
8216
8441
8190
8228
8147
8093
8216
8110
8336
8219
8395
8274
8249
8228
8111
8240
8062
8243
8075
8208
8099
8084
8143
8022
8235
7935
8221
7857
8157
7851
8071
7905
7999
7962
7929
8011
7964
8136
8106
8162
8163
8084
8280
8122
8449
8225
8560
8347
8537
8316
8366
8344
8238
8357
8099
8320
8020
8215
7951
8086
8013
8076
8110
8038
8132
8014
8137
8067
8037
8059
7943
8164
7916
8271
7997
8425
8179
8467
8221
8289
8198
8123
8171
8071
8287
8133
8278
8166
8146
8142
8027
8170
8004
8222
8048
8271
8145
8155
8112
7946
8109
7851
8121
7803
8111
7864
8147
7954
8061
8063
8154
8217
8073
8157
8074
8153
8231
8241
8393
8153
8416
8104
8379
8061
8294
8100
8200
8137
8096
8206
8024
8275
8078
8345
8150
8309
8264
8320
8332
8193
8292
8127
8253
8165
8184
8181
8041
8206
7972
8309
8008
8402
8083
8371
8065
8158
7983
7949
7988
7914
8055
7977
8100
7989
7995
8025
7912
8069
7895
8140
7970
8258
8207
8426
8470
8422
8508
8256
8480
8151
8426
8081
8275
8002
8059
7966
7940
7967
7865
7944
7837
7843
7792
7704
7864
7681
7940
7678
8100
7951
8337
8117
8364
8387
8435
8479
8379
8607
8444
8644
8469
8626
8648
8786
8805
8544
8529
8287
8386
8235
8286
8253
8145
8246
7996
8249
7899
8238
7893
8176
7914
8062
7926
7969
8018
7978
8134
8117
8304
8225
8195
8223
8097
8265
7988
8201
7926
8172
7954
8093
8027
8012
8150
7991
8198
7913
8187
7920
8146
7939
8042
7970
7944
7979
7874
7957
7872
7943
7947
7915
8062
7898
8191
7933
8333
8091
8467
8257
8509
8378
8390
8368
8218
8319
8112
8258
8016
8066
7963
7960
8032
7917
8064
7944
8192
8066
8165
8115
8055
8179
8059
8419
8164
8511
8142
8417
8096
8273
8161
8229
8233
8226
8396
8322
8378
8276
8272
8324
8189
8344
8081
8345
8053
8333
8064
8210
8039
8033
8051
7909
8078
7849
8099
7872
8124
7982
8114
8035
8013
8099
8067
8217
8090
8194
8126
8057
8121
7938
8174
7880
8224
7888
8232
7953
8208
8082
8232
8335
8431
8626
8466
8516
8272
8283
8165
8105
8149
8013
8174
7969
8130
7944
8068
7950
7958
8045
7914
8157
7941
8337
8074
8402
8130
8384
8301
8414
8411
8369
8406
8259
8269
8099
8064
8072
7936
8111
7887
8136
7832
8136
7886
8109
7955
8122
8232
8247
8471
8302
8449
8110
8267
8079
8222
8224
8224
8285
8174
8319
8170
8237
8166
8173
8255
8110
8296
8005
8332
8010
8351
8020
8302
8128
8228
8134
8069
8146
8026
8160
8039
8135
8056
7997
8039
7901
8079
7852
8074
7891
8097
7959
7968
7978
7873
8020
7762
8060
7786
8115
7886
8169
8095
8271
8356
8394
8441
8317
8400
8342
8345
8323
8180
8363
8164
8471
8139
8479
8158
8411
8212
8319
8276
8273
8370
8193
8357
8117
8294
8102
8211
8151
8122
8210
8091
8249
8061
8189
8081
8101
8131
8026
8179
7869
8084
7678
7991
7671
7982
7817
8003
7938
7927
7978
7933
8100
8037
8204
8301
8382
8450
8286
8479
8224
8426
8092
8270
8109
8241
8228
8180
8324
8154
8425
8129
8401
8098
8288
8081
8180
8173
8172
8262
8139
8172
8047
8081
8112
8029
8172
7921
8212
7885
8111
7705
7875
7535
7679
7645
7757
7971
7995
8222
8080
8204
7999
8173
8357
8618
8904
8729
8767
8494
8575
8403
8418
8427
8376
8509
8154
8327
7979
8356
8044
8332
8097
8276
8154
8141
8174
8109
8223
8111
8191
8132
8107
8186
8015
8197
7923
8178
7897
8151
7923
8048
7969
7946
8041
7871
8052
7792
8035
7839
8096
8033
8182
8142
8077
8176
8142
8336
8258
8326
8298
8211
8351
8139
8401
8051
8379
8031
8320
8025
8200
8055
8071
8081
7985
8105
7958
8105
7975
8054
8043
8027
8149
8019
8202
7992
8209
8077
8219
8212
8186
8296
8101
8336
8017
8325
8016
8315
8064
8233
8125
8140
8140
8082
8170
8062
8122
8074
8052
8132
8003
8209
7950
8207
7913
8212
8015
8239
8178
8263
8306
8163
8284
8018
8236
8027
8251
8097
8179
8151
8121
8173
7983
8024
7836
7853
7795
7740
7883
7769
8096
7840
8187
7919
8360
8098
8291
8148
8341
8551
8692
8873
8629
8590
8336
8299
8233
8206
8356
8255
8500
8279
8485
8229
8290
8169
8189
8279
8145
8365
8084
8380
8024
8270
7983
8153
8026
8084
8126
8101
8231
8128
8210
8148
8126
8185
7985
8114
7835
8140
7856
8180
7920
8197
8074
8135
8123
8055
8176
7972
8176
8008
8212
8076
8148
8134
8092
8206
8046
8174
8037
8187
8133
8113
8171
8000
8224
7923
8226
7883
8227
7953
8202
7989
8088
8045
8033
8145
8084
8271
8247
8379
8369
8296
8363
8130
8331
8049
8275
7980
8110
7923
7919
7915
7784
7966
7756
8063
7858
8204
8070
8348
8227
8270
8245
8140
8265
8234
8424
8408
8360
8338
8157
8327
8058
8379
8047
8383
8093
8453
8295
8376
8241
8147
8234
8103
8259
8064
8245
8113
8183
8179
8093
8144
7944
8076
7902
8058
8006
8084
8097
7939
8125
7894
8312
8119
8530
8326
8654
8428
8462
8300
8237
8250
8122
8184
8065
8106
8101
8069
8202
8031
8295
8027
8311
8039
8279
8103
8199
8144
8041
8149
7924
8152
7893
8124
7885
8027
7905
7960
7973
7932
8044
7959
8094
8096
8241
8339
8227
8379
8092
8383
8026
8351
8013
8292
8044
8192
8095
8098
8149
8044
8219
8096
8265
8153
8242
8266
8160
8255
8022
8209
8017
8225
8107
8178
8148
8038
8164
7911
8170
7851
8126
7834
8100
7887
7952
7833
7867
7955
7947
8145
8161
8306
8243
8115
8218
8045
8268
7978
8301
8032
8342
8183
8304
8130
8036
8042
7870
8125
7993
8376
8353
8611
8504
8527
8543
8473
8534
8367
8447
8334
8374
8310
8186
8326
8104
8396
8077
8457
8125
8413
8120
8251
8115
8185
8231
8132
8213
8034
8121
8012
8050
8044
7951
8067
7880
8050
7809
8004
7793
7926
7904
7890
8018
7838
8070
7769
8044
7787
8168
8131
8420
8364
8380
8427
8348
8414
8275
8337
8330
8271
8350
8121
8334
8005
8288
7949
8269
8062
8292
8154
8163
8188
8030
8180
8003
8276
8144
8319
8184
8204
8211
8122
8246
8072
8217
8084
8170
8133
8076
8192
7982
8234
7948
8290
7933
8231
7914
8067
7884
7960
7978
7947
8050
7950
8074
7977
7968
7971
7901
8076
7917
8185
8026
8455
8396
8623
8478
8402
8352
8162
8358
8111
8434
8192
8447
8212
8335
8207
8207
8236
8157
8263
8140
8204
8137
8064
8130
7937
8103
7764
7983
7539
7791
7482
7744
7641
7791
7871
7888
8111
8076
8332
8271
8512
8494
8624
8749
8629
8718
8488
8582
8356
8397
8272
8216
8289
8104
8296
7980
8271
7917
8256
7962
8201
8028
8082
8029
7981
8064
7959
8046
7891
7827
7807
7752
7958
7826
8180
8024
8360
8050
8193
7965
7978
8011
7957
8213
8147
8565
8443
8677
8420
8544
8482
8538
8587
8463
8494
8323
8350
8201
8140
8170
7996
8189
7892
8205
7884
8212
7903
8146
7944
8120
8203
8337
8479
8280
8332
8065
8083
7932
7963
8027
7939
8074
7855
7998
7771
7907
7803
7884
7970
7888
8136
7945
8319
8036
8373
7998
8187
8062
8279
8329
8343
8371
8153
8219
8136
8140
8103
7981
8091
7855
8065
7819
8184
7888
8098
7932
8141
8244
8273
8419
8239
8473
8275
8526
8454
8688
8577
8525
8505
8374
8425
8211
8267
8219
8321
8412
8254
8362
8009
8235
7844
8152
7870
8202
8002
8185
8143
8169
8234
8103
8247
8104
8211
8129
8139
8148
8026
8157
7921
8106
7875
8056
7904
7957
7953
7900
8050
7837
8114
7848
8149
7903
8169
8016
8160
8147
8203
8285
8189
8282
8194
8252
8265
8194
8312
8071
8313
7979
8289
7949
8211
7991
8174
8099
8110
8196
8043
8198
7962
8164
8013
8189
8151
8195
8252
8131
8226
7975
7990
7819
7882
7909
7850
8020
7812
8146
7866
8185
7834
8123
7941
8243
8222
8359
8458
8397
8499
8382
8490
8473
8501
8477
8282
8389
8146
8383
8100
8315
8108
8224
8164
8137
8239
8085
8317
8008
8263
7983
8196
7964
8070
7996
7964
7968
7833
7923
7811
7851
7851
7805
7939
7707
7916
7646
8068
7875
8333
8162
8427
8407
8485
8516
8419
8572
8437
8611
8465
8579
8475
8435
8432
8244
8329
8115
8274
8165
8273
8232
8186
8311
8120
8350
8010
8357
8013
8312
8043
8235
8096
8167
8144
8012
8050
7910
7949
7874
7881
7954
7854
8008
7793
8106
7915
8253
8059
8241
8118
8135
8165
8053
8300
8032
8278
8050
8342
8207
8323
8274
8295
8349
8191
8273
8136
8196
8151
8098
8179
7977
8244
7971
8346
8015
8402
8132
8290
8099
8173
8177
8088
8183
8010
8173
8035
8092
8013
7976
8022
7920
8104
7994
8287
8204
8386
8263
8203
8289
8220
8556
8337
8571
8128
8360
8037
8224
8099
8179
8139
8060
8113
8021
8202
8220
8214
8206
8075
8297
8091
8377
8067
8354
8066
8269
8108
8152
8124
7988
8128
7923
8131
7915
8133
7956
8050
7982
7923
7914
7791
7960
7906
8067
8079
8124
8163
7931
8083
7777
8084
7783
8176
7990
8382
8246
8316
8233
8156
8163
8005
8174
8100
8207
8209
8258
8434
8356
8552
8302
8496
8319
8527
8420
8407
8382
8209
8367
8073
8336
7991
8285
8004
8199
8024
8071
8012
7946
8009
7919
8026
7992
8037
8101
8024
8228
8017
8380
8141
8471
8162
8361
8142
8237
8171
8123
8245
8080
8258
8029
8189
8025
8113
8063
8040
8111
8000
8137
7983
8103
8022
8039
8082
7945
8132
7862
8219
7960
8315
7904
8054
7742
7841
7750
7737
7829
7843
8063
8014
8196
8315
8364
8422
8261
8441
8189
8474
8319
8549
8291
8258
8161
8048
8228
8091
8407
8173
8463
8199
8445
8371
8493
8474
8430
8490
8364
8433
8326
8324
8309
8184
8335
8075
8345
8010
8348
7977
8200
7927
8032
7875
7794
7846
7733
7929
7797
8026
7959
8046
8004
7998
8123
8037
8229
8074
8312
8332
8460
8455
8321
8465
8219
8506
8136
8405
8023
8280
8013
8159
8052
8071
8099
7959
8028
7931
8036
8041
8052
8129
7965
8116
7862
8186
8075
8448
8248
8318
8204
8169
8275
8129
8355
8073
8297
8010
8191
8038
8105
8073
8045
8158
8090
8197
8074
8140
8162
8107
8280
8083
8367
8005
8294
7923
8198
7918
8100
7957
7976
8064
8024
8171
7951
8038
7949
8080
8079
8065
8160
7991
8112
7856
8001
7872
8064
8162
8190
8275
8045
8319
8077
8516
8268
8555
8335
8535
8499
8589
8606
8479
8479
8286
8281
8200
8201
8313
8162
8346
8054
8305
7957
8205
7913
8031
7943
7990
8058
7938
8161
7937
8111
7842
8008
7875
7984
8025
8092
8341
8301
8423
8249
8308
8279
8202
8245
8035
8317
8030
8383
8098
8509
8227
8382
8172
8222
8219
8150
8244
8093
8228
8075
8128
8105
7986
8010
7819
7975
7742
7973
7781
7915
7812
7784
7884
7816
8157
7949
8323
8068
8380
8161
8359
8275
8373
8467
8461
8537
8419
8466
8374
8285
8305
8121
8326
8039
8316
7981
8279
7949
8147
8009
8091
8110
8031
8222
8096
8347
8140
8300
8105
8101
8003
7913
8014
7907
8067
7953
8099
8029
7956
8004
7830
8073
7797
8150
7927
8410
8155
8323
8058
8114
8082
8091
8222
8204
8457
8449
8516
8451
8337
8410
8207
8407
8130
8369
8116
8260
8115
8152
8169
8021
8184
7924
8205
7970
8318
8116
8259
8074
8058
7998
7887
7958
7841
7945
7924
7901
7915
7754
7927
7656
8004
7766
8171
7930
8262
8234
8447
8469
8361
8374
8210
8443
8276
8391
8273
8408
8479
8478
8617
8449
8551
8355
8450
8322
8299
8310
8144
8331
8033
8343
8004
8348
8026
8263
8057
8183
8149
8134
8180
8037
8123
8028
8085
8090
8031
8130
7942
8156
7887
8135
7861
8051
7904
8016
8034
7982
8150
7909
8073
7748
7969
7768
7926
7798
7847
7853
7792
7943
7997
8293
8357
8442
8529
8426
8594
8308
8552
8168
8469
8122
8421
8203
8318
8214
8149
8193
8054
8227
8088
8278
8197
8213
8205
8147
8319
8143
8324
8148
8326
8144
8120
8101
7994
8160
7896
8166
7858
8210
8007
8396
8198
8220
8095
8078
8134
8043
8127
8014
8015
7970
7922
8134
8068
8404
8146
8388
8002
8194
7991
8140
8151
8198
8361
8191
8378
8130
8417
8235
8386
8249
8277
8265
8129
8196
8044
8159
8080
8119
8168
8113
8307
8052
8325
7961
8334
8011
8304
8009
8146
8022
8019
8067
7964
8070
7928
8030
7937
7983
8017
7970
8183
8048
8319
8113
8327
8142
8170
8105
7980
8098
7837
8055
7735
8069
7824
8073
7849
7966
7956
8069
8243
8294
8541
8589
8738
8730
8613
8664
8388
8556
8238
8507
8177
8435
8173
8287
8164
8133
8180
8036
8234
8048
8267
8059
8204
8096
8117
8115
8012
8110
7970
8105
7993
8056
8045
7980
8138
7923
8216
7900
8273
7971
8316
8053
8233
8098
8117
8113
8013
8112
7990
8104
8024
8056
8109
8069
8299
8115
8367
8106
8329
8123
8236
8170
8142
8231
8044
8272
7990
8291
7998
8252
8030
8169
8095
8112
8162
8085
8177
8073
8119
8094
8057
8179
7998
8266
7974
8313
7981
8300
8030
8232
8096
8135
8172
8065
8225
8040
8244
8064
8213
8130
8145
8181
8077
8238
8074
8238
8088
8172
8127
8085
8193
8002
8262
7966
8300
7950
8267
7992
8217
8096
8168
8154
8055
8137
8043
8148
8110
8194
8273
8153
8302
8056
8299
8015
8284
8079
8282
8209
8224
8270
8120
8298
8041
8313
8045
8295
8092
8238
8174
8178
8214
8127
8254
8130
8215
8196
8170
8262
8080
8322
8025
8342
7987
8308
8003
8224
8060
8163
8164
8110
8224
8069
8230
8065
8174
8105
8124
8186
8072
8241
8042
8215
8023
8134
8057
8051
8155
7978
8226
7958
8283
7936
8214
7944
8171
8027
8148
8168
8148
8255
8120
8174
8096
8102
8153
8070
8294
8093
8326
8005
8307
8041
8224
8091
8172
8194
8061
8219
8014
8300
8080
8333
8169
8346
8291
8291
8321
8202
8301
8179
8259
8183
8172
8228
8071
8316
8029
8351
8006
8354
8045
8318
8124
8224
8171
8123
8210
8068
8217
8082
8203
8123
8126
8183
8049
8219
8008
8204
7999
8162
8046
8078
8134
8004
8210
7961
8278
7963
8272
7994
8227
8063
8165
8145
8118
8199
8102
8194
8120
8152
8177
8069
8242
8007
8288
7978
8289
8001
8247
8087
8185
8147
8085
8199
8020
8238
8023
8238
8063
8194
8131
8129
8192
8078
8212
8057
8176
8089
8119
8166
8037
8237
7983
8303
7960
8312
7999
8283
8073
8210
8131
8128
8195
8085
8220
8113
8218
8173
8145
8204
8064
8255
8025
8278
8036
8232
8091
8155
8144
8058
8217
7995
8258
7966
8263
7988
8209
8042
8154
8120
8104
8188
8111
8228
8171
8224
8229
8112
8254
8026
8309
7996
8330
8014
8290
8084
8228
8167
8154
8231
8094
8300
8096
8293
8109
8216
8146
8140
8218
8091
8254
8075
8217
8109
8167
8182
8096
8257
8013
8308
7975
8323
8000
8303
8050
8227
8133
8150
8188
8094
8208
8099
8201
8143
8130
8211
8067
8262
8018
8281
8012
8253
8060
8186
8140
8105
8217
8027
8259
7996
8281
8023
8250
8071
8169
8115
8097
8164
8066
8180
8086
8147
8146
8070
8216
8010
8284
7973
8314
7985
8288
8042
8231
8130
8165
8204
8095
8241
8070
8249
8099
8203
8150
8138
8218
8077
8252
8061
8236
8093
8184
8161
8108
8239
8029
8309
7994
8327
7990
8286
8031
8215
8092
8130
8147
8066
8150
8067
8142
8110
8116
8198
8055
8256
7990
8275
7986
8259
8039
8216
8126
8147
8223
8072
8280
8051
8319
8058
8276
8100
8207
8183
8157
8256
8132
8256
8141
8204
8185
8124
8241
8050
8310
8001
8329
7983
8307
8017
8228
8091
8151
8156
8075
8189
8049
8195
8071
8154
8131
8114
8220
8064
8254
8033
8235
8063
8206
8146
8127
8224
8052
8297
8018
8336
8008
8297
8043
8242
8116
8180
8196
8122
8215
8112
8199
8154
8147
8205
8059
8265
7995
8292
7978
8271
8008
8222
8089
8139
8176
8072
8241
8033
8265
8033
8237
8079
8174
8137
8110
8204
8078
8228
8088
8183
8139
8111
8210
8041
8276
7973
8304
7950
8294
7996
8236
8072
8178
8152
8107
8206
8088
8228
8104
8194
8170
8141
8261
8085
8302
8050
8291
8062
8229
8124
8149
8198
8068
8264
8000
8300
7988
8278
8023
8219
8092
8161
8167
8112
8202
8101
8180
8118
8121
8191
8059
8274
8013
8325
8000
8319
8022
8262
8084
8182
8162
8102
8220
8055
8261
8057
8245
8105
8193
8176
8127
8237
8091
8261
8089
8214
8138
8148
8212
8065
8283
7999
8324
7966
8307
8000
8253
8049
8176
8141
8117
8194
8096
8226
8118
8189
8166
8097
8214
8037
8273
8016
8281
8031
8233
8086
8162
8167
8082
8241
8024
8291
7998
8280
8029
8230
8099
8172
8174
8113
8223
8106
8199
8140
8150
8195
8080
8268
8016
8326
7992
8328
8008
8271
8055
8204
8148
8124
8203
8064
8235
8056
8222
8091
8157
8149
8100
8213
8046
8219
8042
8207
8112
8169
8198
8095
8275
8017
8323
7990
8330
8020
8299
8079
8228
8168
8175
8212
8108
8220
8112
8179
8158
8104
8214
8035
8284
8009
8295
8020
8255
8076
8189
8149
8102
8217
8029
8256
8005
8265
8037
8223
8092
8152
8157
8104
8208
8084
8201
8108
8152
8187
8081
8253
8013
8314
7980
8333
8002
8315
8058
8231
8141
8152
8203
8093
8237
8085
8230
8120
8178
8179
8104
8248
8059
8260
8045
8233
8092
8179
8157
8091
8231
8006
8277
7965
8294
7975
8244
8031
8180
8090
8108
8145
8072
8180
8091
8175
8159
8117
8233
8057
8301
8019
8330
8027
8322
8094
8248
8157
8155
8232
8079
8268
8041
8284
8051
8222
8100
8149
8164
8100
8223
8081
8218
8103
8166
8161
8084
8236
8013
8296
7962
8306
7963
8274
8017
8215
8105
8152
8172
8092
8223
8082
8226
8117
8159
8174
8091
8237
8038
8264
8024
8248
8058
8191
8138
8116
8228
8057
8310
8019
8323
8016
8290
8059
8211
8115
8140
8180
8104
8213
8116
8195
8170
8135
8222
8045
8285
8001
8319
8001
8302
8041
8244
8119
8157
8177
8070
8219
8019
8227
8029
8193
8078
8126
8150
8085
8208
8062
8230
8094
8180
8143
8109
8232
8033
8298
7985
8329
7987
8317
8037
8257
8122
8179
8174
8109
8206
8085
8205
8113
8151
8180
8089
8249
8032
8284
8021
8274
8058
8229
8134
8142
8202
8052
8258
7996
8273
7988
8255
8037
8189
8100
8122
8142
8066
8166
8077
8173
8145
8129
8220
8059
8303
8014
8336
7993
8318
8027
8261
8101
8183
8171
8110
8236
8069
8260
8078
8232
8128
8160
8192
8099
8242
8063
8233
8066
8193
8130
8133
8216
8045
8270
7978
8301
7964
8294
8005
8235
8071
8160
8138
8101
8191
8081
8179
8105
8146
8172
8082
8235
8024
8289
8013
8292
8035
8238
8100
8158
8171
8079
8240
8018
8276
8013
8267
8056
8220
8131
8155
8190
8117
8239
8110
8212
8147
8145
8215
8068
8309
8030
8354
8003
8333
8012
8276
8077
8204
8163
8126
8208
8073
8223
8072
8195
8110
8134
8173
8071
8232
8044
8244
8047
8212
8113
8150
8209
8085
8270
8005
8307
7982
8302
8008
8249
8073
8188
8152
8126
8204
8104
8211
8133
8178
8192
8099
8238
8020
8292
7983
8288
7997
8241
8055
8172
8148
8094
8216
8031
8254
8020
8254
8048
8197
8114
8132
8182
8096
8225
8091
8210
8138
8159
8200
8086
8276
8007
8328
7984
8327
7997
8278
8055
8215
8141
8137
8195
8086
8219
8080
8205
8131
8143
8190
8079
8258
8045
8271
8044
8239
8100
8174
8164
8088
8240
8009
8293
7987
8293
7995
8232
8049
8178
8130
8122
8183
8094
8196
8105
8148
8156
8072
8240
8036
8314
8007
8325
8005
8277
8063
8217
8153
8145
8232
8076
8261
8052
8267
8087
8222
8143
8159
8213
8104
8253
8086
8225
8118
8172
8185
8090
8249
8014
8308
7965
8316
7970
8267
8022
8206
8114
8127
8165
8072
8196
8072
8190
8123
8126
8176
8054
8252
8030
8294
8039
8266
8084
8194
8149
8113
8228
8033
8273
7992
8292
8013
8264
8071
8195
8143
8131
8200
8106
8212
8122
8175
8169
8103
8252
8042
8316
7997
8334
7990
8277
8023
8204
8094
8118
8174
8059
8231
8052
8250
8078
8196
8132
8136
8198
8078
8248
8063
8226
8091
8170
8154
8101
8243
8032
8310
7991
8332
7997
8295
8042
8239
8122
8166
8184
8118
8217
8105
8201
8138
8140
8209
8074
8279
8025
8294
8018
8268
8050
8207
8127
8120
8198
8039
8250
8000
8276
8011
8241
8049
8176
8122
8113
8175
8077
8193
8091
8178
8165
8127
8248
8058
8324
8001
8339
8002
8321
8037
8246
8112
8174
8187
8108
8235
8075
8247
8084
8200
8145
8138
8217
8073
8258
8054
8248
8079
8198
8139
8112
8205
8029
8279
7980
8309
7978
8295
8029
8231
8088
8160
8163
8103
8194
8086
8185
8121
8131
8199
8067
8267
8014
8298
8001
8280
8028
8218
8098
8139
8187
8070
8250
8026
8271
8026
8249
8078
8200
8148
8128
8208
8095
8220
8098
8188
8152
8129
8238
8053
8300
7997
8330
7977
8304
8002
8243
8062
8162
8152
8094
8205
8065
8211
8078
8187
8144
8116
8218
8062
8265
8036
8242
8045
8200
8114
8128
8192
8048
8266
7988
8301
7988
8299
8048
8274
8099
8171
8162
8112
8197
8105
8200
8140
8162
8215
8082
8279
8017
8318
8004
8314
8025
8256
8095
8176
8175
8111
8230
8036
8268
8038
8241
8073
8175
8136
8114
8197
8073
8215
8066
8182
8140
8140
8209
8053
8271
7985
8315
7966
8309
7998
8254
8065
8188
8150
8130
8212
8093
8234
8110
8199
8169
8127
8223
8064
8276
8034
8283
8043
8236
8107
8163
8178
8056
8245
8000
8279
7981
8276
8017
8224
8085
8163
8143
8107
8188
8090
8188
8118
8144
8191
8072
8261
8015
8316
7988
8312
7998
8259
8061
8184
8145
8110
8213
8053
8246
8051
8230
8081
8177
8150
8118
8234
8096
8276
8098
8228
8138
8165
8204
8083
8275
8006
8322
7980
8319
7993
8260
8049
8188
8130
8129
8184
8079
8182
8092
8175
8141
8108
8215
8052
8281
8024
8291
8030
8249
8089
8184
8169
8100
8239
8037
8294
8018
8295
8047
8244
8106
8181
8170
8113
8206
8089
8202
8113
8162
8188
8084
8259
8017
8315
7985
8314
7981
8269
8040
8199
8131
8130
8201
8074
8235
8061
8228
8093
8165
8152
8103
8217
8060
8243
8059
8227
8111
8170
8176
8085
8245
8000
8303
7978
8321
7994
8280
8056
8217
8139
8153
8203
8110
8227
8113
8187
8163
8117
8224
8051
8287
8008
8300
8010
8259
8054
8193
8135
8109
8209
8037
8252
8007
8269
8038
8220
8087
8152
8154
8102
8217
8085
8207
8109
8161
8173
8083
8244
8022
8311
7981
8326
7994
8306
8043
8226
8127
8152
8180
8073
8207
8061
8188
8082
8130
8131
8075
8203
8042
8256
8027
8224
8068
8187
8183
8140
8265
8060
8325
8016
8336
8016
8299
8064
8235
8147
8165
8197
8114
8223
8104
8181
8158
8118
8227
8050
8287
8007
8319
8003
8283
8047
8226
8129
8145
8202
8064
8250
8037
8272
8064
8249
8116
8161
8166
8106
8221
8072
8212
8093
8174
8160
8100
8228
8017
8297
7967
8311
7963
8291
8010
8223
8077
8151
8159
8091
8198
8067
8191
8101
8152
8156
8090
8223
8044
8271
8028
8257
8062
8203
8138
8130
8210
8040
8275
8003
8306
8008
8291
8058
8225
8129
8166
8190
8112
8207
8106
8183
8146
8114
8206
8038
8274
7999
8321
7988
8307
8023
8233
8093
8150
8163
8065
8224
8043
8263
8069
8243
8121
8176
8183
8097
8222
8061
8230
8089
8196
8157
8132
8224
8036
8282
7976
8320
7979
8307
8028
8260
8096
8188
8175
8136
8225
8111
8237
8142
8188
8189
8111
8255
8044
8291
8025
8276
8048
8221
8110
8149
8199
8063
8259
8019
8296
8007
8270
8048
8207
8098
8131
8161
8090
8201
8086
8180
8141
8129
8209
8047
8280
7998
8318
7978
8312
8016
8255
8092
8184
8170
8114
8222
8072
8258
8077
8232
8117
8158
8188
8097
8244
8062
8239
8072
8211
8130
8139
8203
8042
8261
7980
8305
7966
8304
8007
8242
8065
8167
8137
8096
8183
8074
8172
8098
8136
8170
8095
8261
8050
8305
8020
8313
8038
8253
8105
8173
8177
8092
8243
8027
8292
8038
8288
8077
8229
8130
8167
8198
8108
8241
8110
8219
8156
8157
8216
8075
8282
8008
8327
7968
8307
7980
8251
8051
8191
8144
8131
8214
8075
8229
8073
8200
8105
8133
8175
8072
8229
8038
8243
8048
8214
8101
8149
8177
8075
8253
7997
8297
7972
8301
8008
8251
8071
8193
8150
8125
8210
8119
8224
8139
8178
8184
8093
8243
8029
8295
8000
8306
8015
8252
8058
8180
8147
8097
8214
8037
8252
8023
8255
8048
8195
8109
8119
8161
8071
8192
8060
8183
8097
8138
8178
8068
8253
8002
8327
7987
8347
8025
8327
8082
8245
8167
8174
8227
8119
8257
8103
8215
8140
8151
8203
8086
8265
8050
8287
8051
8251
8096
8171
8158
8091
8234
8016
8287
7991
8303
8011
8263
8051
8177
8124
8118
8178
8088
8189
8104
8156
8159
8083
8230
8023
8291
7985
8309
7995
8273
8053
8212
8137
8141
8210
8069
8259
8057
8268
8077
8216
8132
8142
8196
8094
8242
8076
8223
8112
8173
8185
8095
8248
8012
8310
7973
8324
7984
8291
8026
8218
8116
8142
8176
8089
8208
8086
8190
8121
8138
8192
8073
8263
8030
8287
8028
8255
8063
8198
8155
8119
8229
8041
8277
8012
8304
8023
8277
8080
8200
8143
8135
8196
8100
8202
8106
8170
8159
8097
8235
8034
8296
7980
8320
7976
8269
8017
8211
8103
8137
8172
8069
8226
8057
8246
8079
8197
8130
8136
8206
8092
8253
8076
8244
8111
8192
8165
8115
8244
8045
8312
7999
8339
7992
8311
8043
8247
8121
8169
8187
8119
8213
8103
8195
8132
8139
8201
8080
8269
8027
8296
8010
8266
8041
8212
8118
8134
8196
8047
8252
8009
8277
8015
8249
8059
8189
8124
8117
8190
8078
8203
8091
8171
8149
8117
8224
8037
8298
7985
8325
7983
8311
8025
8250
8110
8179
8182
8116
8234
8076
8240
8086
8199
8135
8126
8203
8077
8255
8049
8241
8058
8191
8120
8112
8204
8033
8267
7981
8309
7977
8296
8034
8260
8128
8189
8173
8102
8189
8088
8183
8118
8133
8188
8077
8270
8022
8310
7997
8285
8029
8233
8100
8164
8183
8094
8252
8043
8286
8047
8267
8083
8202
8149
8135
8200
8095
8222
8093
8191
8140
8128
8209
8046
8279
7995
8321
7967
8313
7998
8250
8067
8182
8150
8114
8197
8074
8210
8077
8165
8130
8116
8208
8063
8257
8035
8258
8053
8218
8112
8142
8193
8065
8262
8009
8309
7995
8300
8033
8244
8095
8180
8166
8123
8211
8121
8216
8141
8171
8214
8088
8266
8027
8309
7983
8305
8005
8253
8071
8177
8155
8114
8223
8046
8248
8036
8238
8075
8184
8128
8127
8207
8077
8226
8078
8204
8126
8151
8202
8068
8272
8003
8317
7982
8326
8006
8273
8066
8210
8160
8150
8206
8097
8219
8093
8184
8139
8113
8210
8060
8268
8022
8276
8024
8229
8084
8164
8169
8091
8240
8022
8288
7999
8289
8020
8232
8083
8172
8142
8111
8194
8089
8198
8119
8152
8178
8076
8245
8015
8308
7983
8310
7994
8277
8054
8208
8150
8143
8216
8076
8253
8061
8252
8095
8192
8158
8124
8219
8077
8253
8069
8222
8113
8169
8190
8092
8254
8015
8316
7974
8314
7985
8264
8041
8201
8123
8134
8176
8087
8201
8098
8181
8136
8118
8211
8052
8266
8011
8295
8015
8265
8063
8200
8145
8124
8230
8047
8276
8023
8296
8047
8256
8100
8185
8165
8118
8208
8094
8219
8113
8168
8176
8089
8243
8023
8310
7977
8323
7983
8281
8032
8223
8121
8153
8187
8085
8225
8064
8233
8093
8180
8147
8100
8211
8053
8252
8046
8233
8098
8182
8154
8103
8235
8028
8302
7995
8320
7999
8292
8054
8230
8137
8177
8213
8129
8217
8107
8184
8142
8125
8226
8065
8294
8016
8304
7999
8262
8028
8187
8108
8115
8187
8041
8240
8008
8258
8032
8227
8082
8165
8147
8111
8205
8087
8215
8103
8183
8175
8117
8235
8034
8310
7990
8334
7986
8305
8021
8232
8107
8172
8191
8108
8225
8083
8234
8104
8182
8172
8111
8240
8067
8268
8035
8249
8065
8194
8131
8113
8201
8029
8266
7977
8301
7989
8282
8044
8218
8105
8152
8174
8106
8206
8107
8196
8154
8127
8217
8064
8298
8020
8320
7997
8305
8028
8239
8109
8164
8193
8091
8246
8056
8274
8060
8247
8104
8179
8173
8107
8226
8083
8232
8094
8192
8152
8125
8217
8033
8277
7975
8318
7971
8308
8017
8248
8080
8176
8160
8107
8203
8075
8187
8105
8154
8150
8101
8234
8047
8269
8015
8260
8047
8226
8116
8154
8198
8062
8278
8022
8317
8022
8305
8060
8239
8123
8169
8186
8105
8220
8102
8196
8146
8138
8204
8060
8266
7999
8313
7979
8306
8010
8254
8085
8178
8160
8100
8222
8047
8234
8043
8210
8090
8147
8149
8089
8219
8056
8228
8066
8201
8124
8137
8205
8058
8274
7998
8331
7992
8333
8027
8275
8092
8202
8153
8141
8205
8096
8218
8114
8173
8165
8100
8228
8038
8292
8017
8288
8027
8238
8079
8153
8145
8072
8213
8012
8261
8000
8260
8038
8228
8118
8178
8192
8121
8230
8092
8192
8138
8143
8190
8060
8257
7996
8324
7988
8330
8006
8281
8065
8215
8162
8147
8220
8086
8247
8080
8229
8119
8157
8179
8090
8237
8060
8261
8045
8209
8096
8151
8165
8059
8238
7999
8298
7978
8307
8000
8258
8066
8197
8141
8142
8194
8097
8191
8115
8176
8169
8110
8233
8047
8299
8003
8314
8021
8264
8061
8201
8147
8127
8223
8058
8277
8039
8284
8066
8234
8117
8169
8182
8105
8234
8088
8217
8122
8166
8177
8075
8243
8008
8301
7965
8308
7971
8268
8024
8202
8105
8132
8172
8073
8207
8066
8191
8104
8141
8173
8087
8242
8046
8275
8048
8250
8099
8185
8169
8127
8242
8044
8310
8005
8327
8028
8297
8085
8223
8145
8159
8197
8112
8208
8107
8171
8161
8102
8224
8040
8278
7983
8303
7987
8280
8035
8222
8108
8137
8190
8058
8240
8031
8254
8050
8203
8102
8147
8162
8092
8230
8069
8220
8091
8182
8156
8113
8239
8034
8314
7992
8334
7988
8309
8032
8245
8115
8171
8174
8112
8218
8089
8208
8121
8152
8178
8096
8256
8040
8284
8019
8269
8060
8212
8128
8132
8201
8038
8259
7995
8279
8001
8268
8045
8201
8116
8143
8173
8086
8179
8082
8168
8135
8119
8209
8037
8283
7989
8308
7973
8311
8018
8250
8097
8174
8181
8108
8237
8074
8267
8087
8249
8143
8187
8217
8120
8262
8081
8249
8089
8207
8138
8131
8208
8054
8279
7982
8307
7965
8297
8004
8231
8072
8174
8151
8105
8205
8096
8211
8133
8165
8172
8081
8238
8032
8294
8006
8293
8035
8232
8103
8164
8185
8096
8262
8039
8299
8032
8278
8066
8215
8128
8151
8190
8099
8214
8097
8195
8143
8134
8202
8050
8273
7982
8307
7971
8307
7993
8253
8062
8181
8145
8108
8193
8049
8215
8069
8201
8108
8133
8166
8073
8235
8043
8247
8053
8206
8109
8150
8186
8076
8270
8007
8320
8003
8330
8031
8285
8086
8206
8165
8150
8212
8112
8221
8138
8190
8197
8104
8250
8033
8300
7989
8306
8005
8251
8073
8185
8153
8104
8215
8031
8257
8028
8261
8058
8204
8118
8141
8186
8092
8217
8086
8214
8129
8151
8189
8071
8260
8004
8313
7977
8324
7993
8286
8061
8221
8141
8144
8205
8092
8233
8084
8200
8122
8145
8190
8084
8253
8036
8268
8033
8235
8088
8170
8159
8094
8241
8019
8299
7990
8298
8011
8260
8063
8188
8128
8120
8187
8086
8191
8107
8162
8171
8097
8241
8022
8290
7984
8318
8005
8287
8056
8218
8143
8139
8214
8078
8259
8056
8270
8079
8219
8133
8142
8189
8091
8236
8066
8212
8086
8167
8170
8092
8238
8016
8305
7973
8318
7981
8291
8032
8219
8112
8141
8170
8094
8211
8096
8197
8129
8146
8195
8073
8260
8030
8289
8022
8270
8069
8197
8141
8124
8225
8053
8286
8020
8310
8031
8280
8080
8203
8136
8132
8197
8099
8207
8109
8179
8162
8104
8223
8026
8285
7971
8302
7969
8274
8014
8216
8095
8140
8178
8084
8230
8065
8249
8068
8193
8122
8125
8195
8094
8260
8082
8262
8099
8215
8162
8124
8236
8035
8301
7996
8334
8002
8315
8040
8249
8119
8170
8169
8103
8199
8083
8190
8122
8135
8189
8063
8257
8014
8285
7996
8261
8026
8220
8110
8146
8185
8045
8230
8010
8267
8024
8262
8072
8200
8126
8129
8180
8094
8217
8098
8184
8151
8131
8222
8048
8296
7987
8327
7987
8326
8027
8257
8103
8193
8179
8132
8227
8078
8244
8089
8197
8137
8137
8203
8071
8245
8039
8242
8056
8205
8121
8133
8197
8047
8273
8004
8310
7983
8286
8012
8232
8078
8174
8153
8104
8192
8090
8188
8119
8138
8187
8074
8252
8016
8302
7993
8305
8026
8257
8106
8192
8192
8128
8258
8063
8292
8057
8271
8093
8207
8142
8136
8205
8095
8230
8091
8200
8136
8133
8204
8053
8266
7992
8315
7970
8320
7994
8261
8053
8194
8145
8120
8192
8075
8204
8080
8171
8124
8114
8197
8065
8262
8033
8264
8041
8235
8108
8162
8182
8094
8260
8022
8315
8001
8308
8033
8252
8093
8183
8163
8126
8201
8105
8199
8121
8151
8177
8066
8247
8010
8299
7974
8301
7992
8255
8055
8189
8141
8118
8215
8060
8251
8048
8247
8075
8186
8133
8117
8180
8068
8220
8065
8206
8112
8155
8191
8092
8267
8023
8323
7975
8333
8002
8294
8053
8219
8138
8158
8201
8102
8226
8111
8215
8150
8128
8216
8058
8268
8017
8274
8010
8235
8057
8180
8153
8098
8233
8035
8291
8014
8290
8020
8255
8080
8183
8147
8113
8201
8100
8202
8112
8163
8171
8077
8243
8017
8309
7988
8323
7994
8287
8053
8232
8136
8154
8200
8079
8243
8069
8241
8088
8187
8139
8119
8209
8070
8247
8055
8223
8086
8172
8159
8091
8229
8021
8300
7974
8310
7980
8286
8036
8218
8112
8159
8186
8102
8205
8090
8174
8140
8120
8207
8064
8279
8017
8300
8020
8288
8059
8218
8143
8143
8219
8074
8284
8043
8303
8043
8263
8094
8190
8149
8119
8204
8093
8213
8101
8172
8165
8109
8229
8019
8294
7977
8316
7971
8278
8006
8219
8092
8146
8170
8110
8231
8072
8240
8089
8182
8149
8120
8221
8067
8262
8046
8244
8072
8203
8144
8129
8231
8047
8292
8005
8328
8005
8307
8049
8237
8117
8167
8176
8109
8209
8100
8175
8131
8122
8196
8053
8266
8006
8301
7990
8272
8024
8221
8104
8150
8180
8073
8250
8037
8273
8036
8245
8083
8177
8149
8111
8205
8081
8214
8093
8193
8148
8123
8217
8036
8298
7995
8331
7987
8335
8034
8270
8105
8195
8168
8124
8215
8092
8230
8103
8184
8148
8104
8206
8044
8255
8019
8254
8039
8207
8109
8133
8192
8049
8259
8007
8312
8020
8306
8052
8233
8093
8166
8162
8103
8186
8088
8190
8128
8138
8195
8061
8274
8009
8320
7992
8321
8025
8269
8107
8198
8181
8122
8243
8067
8272
8061
8237
8087
8157
8146
8103
8208
8074
8230
8076
8197
8128
8133
8199
8051
8264
7991
8320
7983
8328
8012
8263
8069
8191
8146
8109
8196
8079
8187
8096
8159
8152
8103
8221
8050
8273
8024
8289
8039
8241
8100
8167
8178
8090
8257
8035
8307
8024
8304
8052
8236
8099
8168
8177
8117
8219
8100
8197
8115
8143
8181
8065
8270
8009
8320
7982
8321
8004
8265
8060
8195
8142
8120
8207
8061
8238
8058
8231
8093
8160
8157
8104
8225
8064
8238
8064
8218
8117
8163
8200
8087
8267
8014
8324
7993
8335
8011
8282
8070
8215
8146
8141
8195
8108
8223
8112
8183
8163
8107
8219
8041
8287
8006
8289
8003
8241
8050
8176
8143
8096
8222
8028
8261
8019
8282
8039
8224
8100
8162
8160
8104
8193
8089
8206
8117
8169
8191
8087
8264
8025
8319
7985
8333
8001
8293
8058
8233
8153
8157
8213
8097
8232
8074
8230
8111
8161
8177
8106
8236
8059
8259
8041
8222
8072
8159
8147
8087
8237
8018
8300
7985
8307
7998
8273
8052
8205
8120
8128
8179
8091
8192
8101
8167
8161
8111
8224
8048
8292
8002
8305
8009
8280
8056
8223
8148
8150
8221
8071
8269
8042
8266
8045
8220
8095
8150
8165
8108
8230
8086
8212
8099
8162
8153
8081
8228
8004
8295
7978
8325
7984
8304
8033
8235
8115
8156
8174
8098
8219
8083
8220
8109
8151
8173
8092
8237
8047
8274
8041
8253
8072
8201
8152
8127
8224
8043
8301
8010
8318
8016
8285
8055
8213
8124
8158
8195
8122
8235
8120
8186
8152
8105
8208
8034
8277
7988
8308
7986
8280
8022
8225
8101
8149
8184
8071
8245
8050
8267
8066
8241
8119
8158
8185
8103
8234
8069
8231
8081
8179
8148
8112
8226
8040
8308
7992
8338
8002
8322
8034
8255
8109
8177
8171
8114
8211
8089
8203
8109
8142
8172
8087
8227
8030
8277
8006
8260
8040
8212
8113
8135
8197
8052
8261
8003
8298
8013
8279
8051
8215
8104
8125
8156
8093
8184
8087
8179
8141
8128
8213
