EMG
7957
8161
7903
8203
7895
8160
7921
8082
7994
7987
8093
7909
8156
7876
8167
7892
8133
7947
8065
8022
7995
8071
7954
8075
7961
8037
8020
7968
8113
7894
8189
7853
8232
7846
8189
7889
8119
7972
8029
8066
7959
8106
7925
8115
7951
8067
8027
8013
8102
7943
8136
7922
8140
7947
8080
8018
7991
8121
7908
8187
7855
8213
7852
8186
7900
8119
7977
8036
8048
7975
8085
7966
8070
8003
8004
8069
7936
8141
7875
8191
7857
8173
7892
8110
7974
8025
8079
7945
8151
7893
8167
7904
8132
7954
8066
8027
8010
8096
7961
8098
7962
8071
8014
7994
8105
7909
8189
7854
8231
7839
8210
7874
8140
7952
8046
8035
7975
8094
7954
8116
7965
8060
8012
7983
8076
7917
8122
7886
8137
7912
8092
7988
7998
8078
7925
8173
7871
8205
7851
8184
7896
8114
7967
8041
8048
7992
8095
7981
8070
7998
8017
8073
7947
8163
7886
8223
7861
8196
7878
8139
7952
8061
8051
7959
8123
7907
8136
7902
8119
7962
8074
8034
7994
8080
7936
8097
7934
8070
7993
8008
8081
7915
8165
7865
8222
7831
8211
7869
8161
7941
8074
8045
8014
8097
7962
8103
7971
8064
8018
7986
8082
7918
8142
7886
8164
7914
8134
7974
8055
8070
7958
8159
7887
8195
7868
8170
7893
8114
7970
8053
8042
7985
8080
7965
8073
7992
8028
8067
7952
8150
7874
8197
7836
8205
7865
8162
7934
8077
8028
7996
8108
7942
8154
7938
8123
7969
8054
8032
7995
8094
7946
8134
7943
8118
7991
8032
8078
7954
8161
7879
8215
7845
8217
7867
8171
7935
8108
8022
8014
8070
7966
8087
7963
8053
8023
7986
8090
7914
8154
7878
8183
7890
8151
7938
8070
8024
7970
8125
7914
8192
7895
8178
7913
8126
7980
8062
8046
7995
8093
7963
8096
8003
8056
8077
7969
8151
7899
8216
7846
8224
7857
8179
7914
8112
8003
8011
8072
7947
8124
7938
8107
7973
8056
8022
7976
8088
7928
8137
7919
8126
7972
8071
8052
7978
8145
7898
8216
7863
8235
7885
8192
7929
8100
8002
8026
8072
7987
8106
7995
8075
8037
7997
8102
7924
8162
7874
8206
7880
8190
7932
8116
8016
8008
8113
7941
8174
7910
8175
7929
8139
7988
8062
8056
8006
8114
7981
8118
8000
8070
8056
7997
8157
7909
8217
7860
8242
7860
8210
7924
8143
8002
8053
8075
7982
8112
7950
8102
7976
8054
8053
7992
8123
7938
8155
7913
8162
7964
8117
8052
8013
8135
7916
8187
7861
8205
7862
8177
7931
8114
8005
8039
8077
7978
8072
7961
8048
8010
7996
8091
7919
8178
7875
8209
7858
8192
7897
8120
7979
8044
8088
7953
8152
7914
8150
7918
8110
7965
8037
8036
7973
8103
7956
8115
7966
8071
8017
7999
8133
7924
8202
7858
8223
7845
8204
7885
8142
7967
8053
8047
7983
8090
7954
8090
7977
8036
8036
7978
8113
7927
8166
7907
8187
7934
8123
7992
8009
8088
7935
8173
7887
8211
7890
8189
7935
8121
8009
8053
8077
8005
8117
7997
8091
8042
8033
8110
7945
8189
7880
8240
7863
8225
7900
8160
7967
8073
8062
7983
8137
7936
8146
7940
8115
7989
8057
8065
7990
8120
7953
8135
7961
8107
8003
8015
8106
7934
8192
7881
8241
7873
8236
7908
8180
7972
8078
8044
8000
8093
7978
8098
7997
8059
8060
7991
8126
7924
8176
7893
8201
7920
8159
7986
8071
8084
7980
8161
7913
8203
7897
8172
7925
8109
7996
8041
8060
7986
8103
7973
8093
8015
8036
8084
7944
8168
7884
8223
7848
8232
7878
8178
7946
8099
8035
8014
8124
7963
8145
7965
8122
7999
8051
8066
7981
8133
7946
8165
7944
8138
7997
8058
8098
7970
8180
7906
8238
7874
8243
7892
8171
7957
8095
8041
8022
8080
7981
8095
7989
8062
8057
7996
8147
7931
8206
7891
8219
7899
8185
7960
8101
8055
8001
8135
7932
8187
7910
8176
7945
8128
8010
8054
8086
7999
8124
7982
8106
8004
8050
8083
7964
8160
7892
8221
7850
8249
7869
8207
7952
8139
8024
8027
8082
7972
8122
7962
8106
8001
8052
8075
7983
8147
7934
8179
7928
8158
7981
8092
8071
7996
8160
7918
8224
7880
8240
7904
8184
7955
8094
8029
8033
8082
7980
8092
7992
8066
8051
8000
8148
7934
8216
7887
8232
7889
8202
7936
8123
8021
8024
8110
7952
8173
7928
8168
7952
8117
8010
8042
8077
7987
8128
7962
8123
7989
8071
8062
7992
8167
7915
8229
7865
8255
7869
8218
7926
8149
8016
8058
8084
7998
8122
7975
8111
8022
8041
8079
7979
8146
7924
8194
7917
8179
7962
8120
8043
8010
8133
7944
8210
7894
8215
7899
8186
7956
8111
8032
8035
8092
7997
8103
7995
8075
8045
8004
8137
7936
8206
7880
8249
7881
8221
7921
8155
8006
8063
8101
7973
8155
7942
8153
7963
8114
8025
8054
8092
7985
8147
7962
8150
7973
8093
8043
8001
8135
7929
8211
7880
8259
7871
8220
7914
8148
7989
8064
8064
8000
8117
7997
8111
8023
8055
8099
7993
8174
7928
8210
7904
8196
7937
8142
8019
8068
8136
7984
8193
7914
8206
7904
8170
7949
8101
8025
8034
8090
7984
8114
7992
8084
8046
8022
8131
7943
8201
7875
8247
7856
8221
7900
8170
7986
8088
8085
8002
8144
7962
8140
7967
8095
8017
8036
8098
7984
8151
7955
8181
7974
8143
8043
8043
8124
7953
8208
7892
8236
7873
8222
7906
8158
7980
8067
8052
8007
8102
7994
8097
8021
8058
8087
7984
8168
7916
8221
7884
8211
7918
8172
7987
8082
8091
7987
8164
7929
8204
7923
8174
7969
8116
8045
8046
8106
8010
8139
7995
8123
8038
8045
8120
7951
8193
7892
8263
7875
8251
7900
8195
7967
8107
8045
8016
8118
7970
8125
7972
8089
8012
8033
8100
7973
8154
7935
8179
7937
8151
8005
8079
8105
7983
8196
7903
8223
7884
8231
7910
8172
7985
8088
8059
8032
8116
8011
8123
8038
8078
8106
8011
8193
7943
8252
7900
8249
7915
8202
7963
8108
8049
7998
8127
7940
8170
7927
8154
7964
8101
8029
8037
8102
7981
8138
7973
8127
8008
8057
8102
7972
8179
7899
8238
7866
8260
7893
8212
7957
8133
8036
8046
8123
8002
8140
7999
8118
8051
8056
8127
7993
8200
7942
8222
7951
8191
7998
8114
8086
8006
8162
7934
8224
7896
8230
7920
8174
7976
8087
8039
8019
8095
7986
8103
8008
8068
8073
7995
8161
7918
8224
7874
8240
7881
8214
7947
8143
8036
8048
8129
7974
8167
7950
8159
7991
8120
8044
8045
8122
7990
8166
7977
8173
8039
8121
8105
8012
8183
7927
8241
7884
8270
7892
8221
7945
8148
8029
8060
8097
8003
8116
7996
8105
8042
8042
8100
7964
8177
7913
8210
7910
8198
7965
8131
8050
8044
8137
7961
8201
7913
8211
7930
8180
7990
8110
8066
8043
8124
8011
8143
8026
8104
8085
8027
8171
7944
8230
7898
8278
7894
8243
7936
8165
8004
8068
8085
7977
8133
7949
8136
7980
8094
8049
8035
8121
7972
8162
7956
8176
7988
8120
8058
8025
8144
7939
8219
7891
8259
7889
8237
7946
8161
8015
8074
8084
8032
8136
8022
8131
8054
8071
8142
8002
8219
7943
8258
7905
8215
7925
8144
8002
8066
8108
7982
8175
7927
8196
7926
8157
7982
8095
8054
8027
8111
7981
8131
7993
8101
8051
8033
8143
7950
8217
7888
8260
7876
8245
7908
8180
7991
8107
8089
8027
8149
7995
8155
8018
8117
8073
8049
8145
7994
8201
7946
8204
7970
8156
8032
8067
8125
7978
8208
7904
8243
7885
8219
7929
8162
8007
8088
8082
8022
8116
7999
8105
8032
8053
8109
7979
8185
7910
8247
7902
8252
7927
8193
7986
8098
8093
8010
8167
7961
8199
7962
8171
8003
8112
8085
8050
8139
8002
8175
8006
8145
8046
8062
8137
7974
8219
7908
8265
7870
8258
7894
8188
7964
8107
8052
8030
8108
7993
8138
8013
8099
8056
8025
8120
7957
8177
7924
8202
7935
8162
7993
8086
8098
7998
8181
7925
8224
7908
8228
7942
8170
8009
8098
8082
8033
8133
8020
8135
8053
8098
8156
8032
8223
7946
8274
7899
8275
7912
8210
7968
8120
8058
8019
8122
7955
8163
7948
8143
7988
8091
8056
8026
8131
7978
8167
7977
8152
8022
8084
8106
7988
8199
7920
8253
7882
8265
7891
8208
7971
8143
8057
8066
8139
8028
8154
8038
8128
8083
8057
8167
7988
8221
7932
8222
7921
8201
7988
8129
8076
8019
8150
7938
8202
7913
8210
7942
8171
8008
8089
8073
8023
8126
7999
8136
8029
8081
8102
7998
8172
7925
8243
7888
8283
7904
8232
7961
8157
8041
8060
8127
8005
8180
7988
8154
8025
8118
8101
8049
8165
7995
8202
7973
8175
8008
8118
8090
8020
8179
7939
8245
7888
8261
7897
8210
7950
8138
8028
8051
8095
8008
8119
8007
8103
8061
8040
8140
7959
8203
7904
8242
7914
8222
7962
8150
8051
8061
8138
7968
8198
7935
8215
7965
8178
8027
8101
8093
8044
8153
8025
8171
8034
8124
8101
8027
8175
7934
8242
7895
8281
7900
8246
7945
8174
8019
8085
8109
8009
8152
7985
8142
8015
8087
8076
8017
8147
7963
8197
7951
8199
7986
8130
8059
8055
8168
7970
8238
7914
8260
7903
8220
7957
8154
8040
8076
8109
8033
8144
8023
8113
8067
8058
8150
7971
8220
7922
8272
7908
8242
7938
8166
8013
8080
8106
7983
8179
7948
8191
7962
8159
8017
8087
8085
8018
8145
8002
8170
8016
8142
8092
8062
8164
7963
8235
7896
8270
7883
8248
7926
8188
8001
8107
8099
8035
8155
8007
8148
8029
8094
8092
8030
8172
7965
8228
7941
8212
7962
8158
8047
8083
8134
7983
8213
7925
8245
7934
8240
7973
8167
8033
8072
8094
8020
8125
8014
8113
8056
8052
8135
7973
8217
7924
8280
7906
8257
7924
8195
8004
8116
8106
8034
8173
7986
8202
7985
8162
8037
8096
8098
8028
8150
7976
8182
8001
8151
8055
8079
8146
7976
8217
7908
8271
7895
8266
7929
8206
7999
8126
8077
8043
8122
8001
8130
8032
8103
8100
8034
8183
7972
8237
7929
8228
7941
8189
8007
8095
8103
8002
8186
7946
8234
7940
8239
7977
8166
8036
8076
8099
8028
8139
8012
8126
8051
8071
8133
7989
8207
7922
8272
7891
8271
7911
8221
7985
8133
8069
8040
8152
7995
8183
7997
8154
8040
8093
8104
8018
8154
7967
8199
7979
8161
8022
8096
8123
7999
8209
7924
8250
7893
8263
7921
8212
7986
8138
8068
8058
8124
8027
8145
8040
8103
8100
8033
8183
7969
8248
7928
8255
7931
8202
7980
8127
8078
8031
8166
7965
8210
7944
8206
7972
8147
8036
8076
8105
8019
8146
8003
8149
8036
8099
8117
8003
8196
7930
8258
7894
8290
7906
8243
7969
8158
8055
8083
8140
8017
8176
8012
8152
8042
8092
8111
8030
8188
7971
8216
7963
8190
8008
8120
8096
8028
8184
7953
8247
7913
8267
7926
8209
7984
8149
8061
8062
8127
8026
8136
8042
8114
8093
8032
8171
7958
8243
7918
8272
7917
8233
7966
8160
8057
8064
8135
7984
8202
7957
8205
7983
8146
8042
8087
8111
8021
8158
7994
8161
8016
8108
8090
8023
8191
7945
8252
7906
8287
7897
8254
7954
8177
8046
8109
8126
8028
8151
8010
8137
8050
8077
8106
8006
8189
7958
8221
7943
8221
7989
8162
8078
8067
8163
7971
8224
7924
8257
7927
8203
7975
8130
8058
8072
8122
8034
8145
8035
8109
8088
8066
8186
7990
8252
7918
8290
7905
8251
7945
8178
8018
8098
8126
8019
8185
7980
8201
7999
8150
8055
8076
8111
8010
8165
7985
8183
8010
8137
8075
8041
8161
7956
8243
7910
8292
7911
8276
7956
8198
8024
8107
8092
8029
8134
8007
8135
8039
8073
8113
8010
8191
7945
8242
7927
8224
7955
8173
8053
8100
8144
8004
8219
7954
8248
7947
8213
7990
8153
8056
8077
8123
8032
8151
8019
8129
8063
8058
8157
7985
8249
7928
8295
7905
8263
7935
8221
8011
8126
8108
8028
8153
7979
8167
8002
8138
8046
8069
8119
8013
8178
7976
8201
7996
8169
8070
8090
8152
7991
8219
7916
8279
7909
8276
7949
8208
8019
8131
8106
8060
8145
8029
8141
8062
8099
8115
8018
8194
7952
8260
7929
8263
7951
8210
8017
8122
8114
8020
8188
7959
8211
7946
8192
7981
8131
8055
8064
8118
8019
8155
8016
8154
8061
8074
8144
7992
8221
7918
8284
7903
8290
7930
8231
7999
8160
8095
8065
8152
8013
8189
8027
8150
8069
8082
8135
8012
8192
7968
8216
7973
8188
8036
8118
8136
8021
8225
7949
8265
7915
8257
7933
8193
7996
8116
8071
8047
8126
8018
8134
8042
8090
8106
8022
8192
7946
8260
7910
8276
7931
8229
7994
8146
8097
8068
8179
7996
8232
7974
8206
7997
8136
8067
8069
8135
8023
8174
8008
8170
8050
8101
8129
8012
8210
7931
8258
7884
8273
7900
8228
7978
8163
8071
8077
8141
8027
8157
8024
8135
8062
8072
8132
8003
8201
7953
8235
7958
8219
8019
8145
8113
8054
8192
7966
8248
7920
8260
7954
8204
8002
8121
8071
8049
8124
8023
8143
8041
8103
8120
8034
8195
7968
8282
7919
8292
7918
8242
7970
8168
8069
8084
8146
7999
8192
7979
8197
8013
8144
8079
8068
8138
8008
8192
7997
8179
8025
8123
8114
8036
8196
7952
8263
7910
8291
7915
8246
7974
8177
8049
8093
8135
8039
8154
8032
8134
8068
8079
8155
7997
8212
7946
8253
7943
8226
7991
8165
8073
8071
8163
7982
8221
7939
8247
7957
8204
8006
8127
8082
8059
8138
8028
8148
8029
8122
8102
8040
8178
7960
8251
7915
8301
7918
8272
7964
8201
8038
8102
8126
8018
8175
7997
8172
8020
8135
8082
8064
8151
8011
8205
7981
8201
8015
8151
8088
8066
8178
7971
8251
7921
8288
7920
8264
7969
8189
8043
8100
8107
8036
8143
8026
8132
8070
8076
8149
8003
8220
7939
8257
7923
8240
7958
8183
8054
8099
8150
8022
8221
7972
8241
7968
8208
8018
8135
8093
8058
8138
8020
8172
8029
8136
8073
8053
8171
7980
8258
7929
8306
7913
8285
7944
8208
8022
8130
8120
8047
8168
8014
8166
8021
8127
8091
8061
8154
7999
8213
7972
8222
7990
8178
8066
8096
8159
7998
8238
7941
8281
7925
8261
7962
8193
8038
8109
8110
8051
8148
8036
8131
8071
8093
8149
8011
8221
7948
8279
7925
8269
7951
8218
8019
8121
8113
8027
8182
7974
8217
7973
8202
8023
8130
8092
8057
8149
8010
8183
8013
8153
8066
8090
8162
7995
8236
7930
8294
7902
8294
7930
8232
8012
8150
8102
8071
8163
8025
8168
8039
8129
8088
8050
8153
7988
8226
7958
8238
7980
8206
8044
8121
8136
8020
8207
7940
8250
7924
8253
7950
8178
8030
8105
8104
8062
8151
8038
8138
8051
8075
8123
8006
8207
7943
8281
7918
8289
7936
8238
7999
8152
8103
8082
8184
8012
8216
7994
8180
8025
8124
8103
8063
8163
8011
8205
8002
8175
8044
8108
8142
8013
8223
7938
8280
7902
8282
7924
8239
7998
8159
8071
8073
8148
8040
8164
8049
8123
8085
8053
8167
7990
8240
7947
8266
7959
8225
8013
8144
8109
8054
8189
7979
8245
7943
8252
7974
8205
8043
8125
8108
8056
8150
8027
8160
8050
8111
8116
8013
8202
7949
8282
7908
8292
7922
8255
7974
8171
8072
8100
8172
8031
8194
7999
8165
8033
8123
8101
8051
8171
8006
8215
7993
8196
8032
8137
8123
8043
8199
7958
8270
7917
8289
7939
8247
7985
8172
8060
8086
8133
8042
8156
8043
8130
8093
8064
8166
7988
8233
7940
8274
7941
8246
7988
8174
8079
8081
8167
7999
8224
7960
8228
7984
8197
8041
8119
8108
8056
8155
8024
8173
8037
8128
8112
8037
8188
7961
8259
7905
8299
7911
8270
7964
8199
8042
8105
8126
8030
8171
8017
8170
8047
8121
8111
8057
8184
8000
8225
7971
8220
8008
8165
8093
8075
8183
7983
8249
7932
8280
7928
8235
7972
8169
8051
8092
8121
8042
8149
8035
8126
8078
8054
8158
7981
8238
7936
8287
7927
8264
7971
8204
8059
8118
8153
8027
8211
7982
8228
7995
8195
8047
8118
8112
8053
8169
8016
8192
8037
8155
8103
8080
8189
7980
8259
7923
8298
7912
8280
7950
8206
8029
8127
8111
8052
8156
8019
8154
8050
8116
8107
8044
8183
7984
8238
7958
8231
7980
8186
8066
8102
8155
8009
8235
7946
8272
7943
8256
7986
8187
8055
8095
8116
8046
8155
8044
8152
8080
8085
8173
8009
8246
7941
8298
7919
8291
7948
8211
8015
8139
8112
8042
8190
8005
8220
8013
8199
8064
8126
8132
8051
8180
8003
8194
8007
8165
8079
8092
8158
7998
8241
7930
8297
7912
8297
7948
8225
8018
8144
8097
8070
8163
8042
8165
8059
8122
8115
8049
8189
7977
8252
7945
8254
7968
8212
8031
8122
8121
8022
8199
7962
8242
7944
8245
7985
8186
8058
8101
8124
8041
8152
8026
8148
8063
8098
8155
8014
8230
7944
8286
7913
8302
7942
8251
8013
8161
8100
8069
8174
8020
8198
8020
8195
8076
8121
8135
8048
8194
7995
8210
7980
8164
8030
8111
8136
8016
8223
7950
8274
7911
8278
7935
8222
8003
8161
8095
8087
8160
8031
8147
8049
8119
8118
8058
8199
7978
8267
7944
8281
7954
8238
8017
8163
8110
8077
8196
7993
8238
7976
8246
7997
8179
8057
8101
8128
8050
8162
8026
8170
8058
8125
8141
8031
8227
7959
8297
7912
8303
7927
8255
7987
8175
8062
8099
8153
8031
8188
8020
8164
8060
8109
8130
8040
8199
7992
8232
7986
8213
8020
8139
8118
8059
8209
7968
8268
7932
8288
7947
8243
8008
8164
8085
8089
8142
8043
8154
8047
8124
8106
8058
8194
7984
8264
7935
8288
7930
8249
7984
8177
8079
8085
8155
8006
8222
7993
8246
8017
8186
8059
8094
8117
8033
8170
8009
8183
8043
8138
8125
8047
8212
7966
8276
7919
8303
7918
8266
7969
8197
8057
8123
8138
8046
8181
8034
8167
8072
8108
8134
8035
8209
7982
8259
7973
8241
8013
8178
8097
8090
8183
7977
8231
7936
8272
7950
8231
8008
8164
8071
8085
8140
8044
8160
8047
8136
8095
8068
8183
7988
8256
7930
8299
7919
8274
7970
8201
8064
8127
8143
8035
8204
8006
8221
8013
8163
8071
8108
8136
8033
8188
8004
8205
8026
8151
8104
8080
8180
7975
8260
7926
8295
7915
8280
7953
8204
8040
8125
8124
8058
8166
8034
8147
8062
8111
8148
8043
8223
7986
8278
7962
8256
7982
8195
8070
8109
8162
8016
8232
7970
8265
7958
8241
8005
8170
8073
8084
8138
8040
8173
8041
8148
8080
8072
8176
7997
8251
7932
8309
7920
8298
7962
8234
8029
8144
8123
8054
8184
8017
8201
8029
8162
8065
8083
8134
8019
8187
7988
8217
8009
8180
8081
8099
8171
8006
8243
7940
8295
7923
8286
7961
8214
8040
8142
8107
8069
8170
8054
8165
8077
8118
8144
8030
8213
7972
8273
7930
8270
7964
8217
8024
8127
8125
8037
8201
7975
8239
7975
8236
8015
8177
8085
8093
8153
8050
8191
8032
8163
8071
8092
8157
8010
8243
7936
8298
7915
8306
7947
8243
8005
8160
8108
8072
8167
8028
8192
8034
8154
8085
8102
8152
8032
8228
7989
8242
8000
8209
8049
8135
8147
8028
8229
7953
8272
7938
8285
7966
8233
8035
8153
8105
8071
8152
8042
8145
8058
8107
8134
8039
8212
7967
8282
7936
8294
7944
8241
8008
8164
8105
8072
8186
8001
8227
7980
8222
8018
8159
8084
8098
8162
8053
8212
8034
8185
8062
8126
8152
8032
8233
7955
8305
7908
8302
7929
8244
7984
8174
8074
8083
8156
8037
8180
8035
8151
8084
8086
8162
8020
8243
7980
8249
7980
8224
8020
8153
8116
8053
8202
7978
8263
7945
8279
7966
8233
8032
8152
8097
8076
8149
8040
8154
8060
8124
8131
8053
8208
7979
8273
7908
8285
7913
8248
7971
8183
8082
8101
8167
8022
8216
7999
8209
8024
8154
8083
8085
8154
8025
8209
8013
8202
8048
8144
8129
8068
8222
7973
8282
7926
8312
7933
8264
7990
8200
8066
8113
8143
8054
8161
8040
8143
8080
8090
8166
8022
8235
7968
8276
7957
8245
8002
8189
8101
8101
8187
8001
8248
7964
8260
7960
8216
8015
8137
8088
8070
8161
8042
8181
8060
8147
8128
8071
8216
7995
8290
7933
8310
7923
8279
7969
8206
8049
8123
8152
8047
8200
8015
8207
8037
8149
8098
8084
8182
8031
8240
8003
8214
8019
8155
8100
8071
8185
7982
8261
7934
8298
7921
8271
7977
8203
8057
8126
8135
8059
8160
8046
8149
8086
8104
8173
8029
8234
7963
8286
7945
8264
7981
8205
8061
8119
8157
8024
8222
7974
8256
7980
8221
8037
8148
8099
8078
8163
8036
8189
8041
8156
8102
8085
8185
7991
8257
7926
8304
7908
8289
7941
8217
8019
8128
8112
8047
8165
8009
8171
8033
8145
8093
8079
8194
8050
8276
8016
8256
8013
8194
8082
8109
8172
8016
8244
7951
8295
7941
8282
7979
8213
8052
8137
8128
8068
8163
8049
8152
8083
8107
8155
8018
8234
7965
8296
7935
8293
7953
8223
8022
8146
8128
8046
8200
7991
8233
7992
8214
8040
8149
8109
8078
8165
8029
8197
8025
8166
8082
8100
8168
8014
8260
7952
8317
7927
8316
7957
8250
8011
8157
8098
8065
8167
8038
8174
8048
8140
8107
8084
8179
7999
8247
7973
8257
7991
8232
8068
8150
8141
8033
8217
7958
8261
7945
8268
7975
8207
8043
8121
8104
8066
8162
8046
8172
8081
8123
8150
8041
8235
7966
8298
7930
8310
7949
8256
8007
8176
8108
8088
8183
8013
8213
8000
8205
8047
8147
8113
8072
8178
8022
8210
8003
8185
8052
8116
8137
8030
8223
7958
8297
7920
8305
7937
8253
8005
8179
8085
8086
8158
8046
8170
8058
8145
8102
8084
8191
8008
8249
7960
8278
7964
8240
8017
8169
8112
8078
8201
7996
8256
7966
8269
7984
8213
8045
8139
8113
8065
8162
8039
8182
8063
8133
8132
8039
8213
7965
8289
7921
8315
7940
8281
8000
8201
8079
8119
8163
8034
8202
8014
8183
8040
8130
8113
8064
8184
8013
8230
8001
8217
8035
8151
8118
8067
8209
7979
8277
7932
8298
7942
8267
7995
8190
8078
8112
8152
8058
8169
8058
8144
8095
8082
8186
8007
8256
7958
8296
7951
8263
8005
8196
8084
8100
8170
8016
8236
7979
8254
7985
8196
8033
8124
8122
8066
8173
8042
8190
8058
8157
8130
8082
8212
7984
8287
7924
8311
7923
8274
7964
8209
8046
8133
8156
8071
8210
8042
8183
8048
8127
8123
8076
8196
8012
8260
7998
8241
8015
8178
8092
8085
8165
7987
8237
7940
8287
7937
8261
7989
8191
8061
8101
8124
8053
8160
8053
8146
8096
8088
8175
8015
8253
7965
8313
7948
8300
7982
8219
8057
8136
8153
8059
8232
8018
8264
8005
8201
8049
8124
8114
8059
8170
8021
8205
8033
8163
8100
8091
8184
7996
8257
7935
8305
7919
8297
7956
8231
8039
8153
8123
8070
8181
8047
8178
8066
8135
8122
8061
8198
8011
8261
7968
8255
7992
8202
8068
8122
8154
8027
8239
7969
8288
7964
8270
7987
8192
8064
8122
8139
8070
8167
8049
8159
8085
8110
8169
8023
8244
7946
8297
7925
8299
7946
8234
8021
8153
8120
8066
8191
8023
8228
8021
8206
8066
8139
8129
8063
8185
8019
8226
8024
8199
8082
8112
8158
8004
8245
7948
8311
7939
8313
7968
8257
8036
8171
8111
8083
8174
8049
8173
8059
8134
8128
8068
8204
7997
8266
7955
8279
7973
8233
8035
8155
8134
8062
8220
7988
8254
7963
8253
7995
8192
8060
8110
8126
8061
8185
8051
8175
8078
8116
8161
8030
8238
7951
8300
7916
8306
7933
8258
8008
8179
8103
8095
8179
8033
8214
8027
8180
8067
8123
8134
8056
8201
8001
8224
7996
8206
8049
8132
8144
8031
8232
7963
8294
7930
8298
7953
8248
8013
8170
8101
8100
8164
8047
8161
8063
8132
8119
8064
8196
7994
8271
7946
8295
7956
8259
8031
8199
8134
8102
8208
8008
8246
7978
8251
8005
8199
8070
8125
8139
8054
8183
8041
8189
8067
8134
8138
8038
8225
7964
8296
7925
8313
7932
8265
7989
8191
8082
8108
8154
8042
8194
8036
8177
8071
8122
8134
8048
8211
7995
8257
7995
8234
8036
8165
8124
8074
8208
7984
8271
7943
8291
7954
8245
8008
8181
8088
8093
8148
8059
8168
8062
8144
8128
8075
8209
7994
8270
7945
8295
7942
8264
7983
8191
8077
8108
8178
8024
8228
8002
8250
8022
8195
8081
8126
8150
8064
8225
8041
8208
8067
8162
8132
8076
8212
7976
8279
7924
8311
7925
8287
7982
8210
8060
8132
8147
8060
8189
8038
8168
8078
8119
8142
8047
8213
7983
8252
7963
8235
8004
8180
8094
8092
8181
8000
8250
7954
8284
7960
8262
8014
8185
8089
8103
8157
8063
8175
8057
8153
8119
8075
8196
8009
8279
7944
8317
7939
8305
7984
8227
8069
8138
8150
8044
8209
8008
8225
8022
8185
8079
8108
8147
8045
8212
8020
8225
8032
8168
8108
8091
8187
7996
8269
7945
8317
7932
8294
7973
8227
8045
8141
8132
8068
8174
8046
8174
8079
8116
8157
8054
8224
7978
8273
7962
8259
7991
8204
8074
8131
8163
8034
8251
8001
8301
7988
8264
8019
8191
8089
8100
8147
8048
8188
8056
8176
8095
8097
8189
8013
8264
7941
8310
7921
8298
7959
8237
8029
8155
8139
8091
8200
8036
8216
8035
8176
8089
8106
8152
8036
8220
8001
8223
8008
8184
8084
8116
8180
8024
8258
7956
8312
7937
8293
7975
8234
8037
8147
8113
8078
8176
8053
8163
8078
8118
8151
8049
8225
7982
8285
7946
8292
7967
8226
8039
8145
8137
8061
8209
7987
8246
7980
8251
8020
8178
8096
8107
8179
8059
8199
8048
8180
8089
8117
8169
8023
8246
7950
8306
7924
8309
7947
8258
8022
8179
8109
8095
8176
8034
8202
8038
8165
8085
8103
8167
8040
8234
7995
8249
8008
8220
8071
8141
8149
8034
8233
7963
8290
7939
8292
7974
8237
8034
8163
8116
8087
8159
8063
8171
8078
8119
8131
8032
8204
7973
8284
7934
8308
7961
8254
8020
8174
8115
8091
8201
8015
8242
7995
8240
8030
8176
8095
8101
8165
8042
8204
8029
8196
8072
8135
8159
8037
8241
7963
8298
7919
8309
7940
8260
8001
8182
8097
8109
8162
8052
8203
8056
8186
8101
8102
8176
8034
8246
7986
8279
7991
8237
8032
8160
8127
8070
8216
7987
8268
7950
8282
7972
8248
8055
8173
8111
8083
8163
8051
8187
8076
8136
8135
8052
8209
7977
8283
7926
8308
7944
8269
8003
8192
8090
8103
8177
8050
8242
8029
8216
8026
8155
8092
8092
8187
8047
8224
8017
8197
8047
8136
8136
8071
8232
7982
8309
7933
8316
7944
8284
7994
8196
8085
8127
8159
8064
8184
8053
8160
8089
8097
8177
8028
8250
7974
8279
7964
8249
8011
8184
8098
8095
8188
8013
8260
7974
8284
7977
8231
8042
8170
8117
8079
8155
8042
8176
8059
8157
8138
8069
8213
7990
8291
7943
8322
7932
8290
7990
8221
8074
8140
8165
8055
8214
8029
8217
8045
8149
8101
8085
8163
8017
8214
8002
8222
8028
8168
8113
8086
8203
7999
8274
7945
8323
7951
8277
7985
8208
8073
8142
8151
8069
8173
8058
8169
8097
8101
8175
8033
8243
7966
8293
7954
8272
7992
8210
8083
8129
8169
8039
8238
7991
8272
8003
8246
8048
8168
8111
8080
8171
8042
8193
8049
8158
8122
8103
8202
8008
8276
7947
8315
7921
8301
7968
8239
8048
8152
8139
8072
8200
8031
8208
8059
8161
8116
8093
8199
8029
8260
8007
8249
8011
8187
8083
8098
8171
8004
8257
7954
8302
7949
8286
7980
8208
8062
8149
8144
8075
8168
8060
8171
8095
8103
8168
8027
8237
7961
8297
7935
8294
7973
8229
8053
8149
8139
8051
8208
7997
8239
7992
8226
8043
8143
8106
8077
8176
8037
8215
8040
8181
8099
8104
8180
8017
8263
7955
8321
7933
8309
7953
8245
8029
8171
8135
8092
8181
8046
8180
8058
8149
8116
8083
8197
8017
8257
7983
8257
8002
8227
8079
8143
8160
8056
8243
7978
8290
7963
8285
7993
8229
8059
8150
8129
8075
8169
8050
8170
8077
8119
8163
8033
8245
7978
8318
7954
8326
7964
8261
8025
8173
8123
8088
8195
8021
8240
8033
8248
8070
8145
8111
8066
8171
8019
8207
8019
8197
8085
8141
8167
8034
8240
7962
8313
7934
8316
7953
8258
8015
8183
8109
8101
8172
8060
8179
8060
8152
8115
8083
8195
8008
8261
7970
8285
7973
8241
8035
8172
8130
8079
8222
8002
8270
7973
8278
7996
8224
8062
8158
8140
8081
8178
8049
8178
8070
8129
8140
8046
8226
7970
8299
7938
8327
7947
8279
8004
8197
8096
8104
8155
8024
8202
8018
8189
8059
8147
8124
8077
8196
8024
8232
8005
8220
8046
8151
8128
8066
8223
7978
8291
7941
8312
7951
8276
8001
8194
8089
8114
8162
8058
8179
8061
8161
8114
8092
8197
8021
8280
7965
8299
7960
8265
8006
8194
8104
8111
8196
8027
8257
7998
8274
8015
8229
8067
8146
8123
8067
8173
8038
8195
8062
8158
8137
8081
8224
7989
8309
7947
8334
7944
8300
7983
8214
8061
8125
8148
8057
8193
8027
8187
8058
8135
8123
8079
8207
8013
8256
8002
8244
8027
8180
8107
8095
8202
8005
8270
7958
8302
7955
8277
8011
8208
8083
8122
8161
8076
8176
8066
8163
8104
8090
8190
8014
8269
7960
8305
7945
8281
7985
8224
8069
8131
8166
8050
8228
8009
8265
8025
8234
8065
8137
8126
8067
8186
8028
8196
8039
8165
8112
8096
8194
8001
8272
7946
8329
7941
8313
7977
8237
8050
8152
8138
8078
8200
8051
8184
8073
8143
8129
8070
8211
8005
8263
7979
8254
7998
8209
8090
8137
8181
8040
8262
7983
8292
7965
8267
7995
8197
8065
8112
8136
8058
8168
8048
8162
8095
8118
8190
8048
8296
7978
8320
7939
8299
7965
8248
8031
8159
8133
8080
8205
8020
8234
8024
8211
8066
8127
8136
8069
8211
8032
8231
8036
8193
8093
8115
8181
8028
8267
7963
8322
7942
8318
7965
8246
8033
8167
8116
8079
8169
8051
8180
8072
8146
8130
8072
8208
8002
8279
7967
8271
7983
8229
8043
8153
8138
8061
8220
7983
8265
7974
8265
8014
8212
8078
8123
8139
8064
8180
8047
8179
8089
8116
8162
8033
8241
7960
8309
7936
8317
7943
8249
8015
8182
8114
8094
8188
8053
8229
8045
8214
8079
8135
8146
8067
8212
8019
8247
8022
8218
8074
8142
8150
8036
8237
7973
8311
7951
8320
7974
8256
8028
8180
8109
8103
8166
8062
8178
8071
8135
8124
8066
8215
7998
8285
7960
8292
7964
8255
8026
8191
8128
8094
8206
8015
8250
7984
8259
8013
8202
8071
8121
8151
8070
8200
8043
8188
8082
8150
8155
8058
8238
7978
8315
7941
8339
7951
8279
7990
8197
8095
8122
8171
8065
8215
8054
8189
8082
8133
8149
8064
8223
8010
8262
7999
8231
8039
8169
8128
8081
8221
7989
8280
7944
8296
7963
8268
8024
8190
8104
8112
8171
8071
8184
8074
8159
8142
8082
8208
8002
8278
7949
8307
7951
8277
8000
8201
8087
8112
8172
8030
8230
8006
8253
8026
8205
8081
8127
8148
8066
8211
8044
8220
8062
8163
8133
8075
8215
7989
8300
7939
8324
7938
8292
7986
8226
8091
8157
8172
8081
8208
8058
8182
8090
8131
8158
8048
8220
7994
8272
7974
8240
8005
8186
8090
8100
8188
8008
8258
7958
8294
7981
8275
8027
8195
8093
8118
8166
8059
8178
8062
8164
8123
8092
8199
8012
8270
7952
8314
7944
8304
7975
8233
8069
8142
8148
8060
8214
8013
8222
8028
8196
8087
8126
8174
8062
8230
8024
8224
8037
8177
8103
8103
8202
8020
8278
7956
8321
7938
8304
7971
8230
8047
8148
8132
8077
8183
8053
8166
8070
8121
8154
8061
8231
7996
8288
7967
8277
7991
8222
8071
8138
8158
8035
8238
7986
8282
7982
8259
8017
8193
8100
8114
8154
8064
8197
8047
8176
8118
8122
8197
8032
8274
7961
8323
7941
8311
7955
8249
8040
8170
8131
8094
8194
8037
8223
8042
8193
8091
8116
8172
8048
8237
8017
8249
8028
8209
8093
8128
8175
8037
8262
7970
8307
7944
8310
7978
8241
8040
8161
8115
8090
8174
8060
8176
8082
8133
8151
8051
8215
7979
8280
7951
8301
7970
8248
8042
8176
8145
8087
8223
8018
8267
8001
8261
8029
8190
8093
8118
8164
8061
8208
8047
8188
8076
8132
8169
8036
8252
7965
8312
7924
8320
7954
8269
8012
8183
8101
8109
8178
8055
8207
8051
8173
8093
8117
8173
8048
8242
8005
8273
8000
8235
8068
8164
8143
8062
8228
7985
8297
7955
8296
7970
8246
8045
8181
8115
8098
8180
8062
8185
8079
8148
8146
8068
8225
7996
8298
7954
8320
7966
8282
8025
8203
8110
8114
8189
8029
8239
8005
8246
8033
8189
8103
8109
8160
8045
8203
8019
8191
8055
8147
8144
8068
8231
7967
8292
7924
8324
7958
8297
8009
8209
8081
8123
8157
8067
8197
8063
8195
8105
8123
8180
8060
8255
7989
8275
7978
8254
8019
8182
8107
8096
8202
8013
8270
7967
8292
7986
8258
8039
8186
8113
8111
8182
8064
8190
8064
8147
8125
8069
8202
7986
8286
7938
8320
7940
8290
7991
8224
8078
8136
8157
8051
8222
8018
8224
8037
8182
8094
8098
8164
8042
8232
8018
8227
8046
8176
8131
8096
8214
8002
8291
7949
8324
7951
8299
7997
8224
8068
8145
8154
8079
8190
8062
8163
8102
8122
8175
8044
8241
7976
8290
7963
8267
7999
8214
8082
8124
8175
8036
8252
7990
8281
7991
8252
8037
8186
8108
8101
8168
8067
8205
8060
8163
8113
8096
8203
8019
8295
7961
8327
7939
8321
7977
8252
8057
8168
8148
8086
8203
8035
8204
8038
8163
8100
8101
8173
8034
8241
8002
8240
8023
8201
8095
8119
8189
8021
8252
7961
8309
7946
8296
7986
8230
8058
8155
8141
8083
8180
8056
8184
8096
8137
8174
8058
8260
7998
8306
7951
8294
7975
8243
8062
8149
8144
8064
8209
8005
8258
8000
8250
8051
8190
8113
8098
8172
8052
8204
8051
8191
8107
8121
8180
8031
8267
7960
8317
7927
8314
7953
8250
8026
8179
8123
8105
8196
8060
8208
8060
8172
8102
8099
8185
8041
8258
8002
8277
8010
8229
8070
8143
8160
8062
8247
7983
8308
7960
8290
7985
8229
8044
8163
8126
8088
8184
8061
8179
8083
8136
8170
8071
8268
8011
8321
7952
8316
7962
8254
8020
8180
8120
8097
8201
8027
8246
8015
8245
8049
8177
8110
8094
8171
8043
8221
8046
8208
8094
8141
8167
8047
8245
7968
8313
7936
8324
7956
8267
8006
8191
8106
8120
8176
8066
8197
8068
8162
8108
8104
8190
8023
8248
7976
8276
7974
8247
8035
8170
8134
8086
8215
8000
8271
7971
8286
7991
8238
8051
8165
8125
8089
8172
8053
8190
8084
8150
8151
8066
8238
7993
8310
7944
8322
7953
8277
8002
8195
8093
8117
8174
8044
8230
8027
8233
8062
8179
8122
8090
8188
8029
8226
8018
8221
8060
8165
8140
8073
8229
7987
8305
7948
8327
7959
8290
8016
8212
8087
8139
8167
8072
8190
8076
8177
8108
8101
8197
8033
8267
7979
8298
7976
8274
8020
8210
8111
8107
8192
8009
8249
7976
8272
7996
8231
8053
8162
8125
8085
8176
8047
8205
8076
8160
8141
8077
8213
7995
8297
7943
8327
7939
8299
7990
8224
8081
8141
8160
8064
8213
8035
8206
8063
8153
8124
8086
8199
8023
8249
8001
8233
8035
8178
8119
8101
8209
8006
8281
7953
8304
7957
8293
8016
8223
8087
8143
8155
8074
8170
8058
8153
8094
8096
8173
8022
8268
7970
8309
7963
8290
8005
8229
8092
8141
8185
8060
8244
8006
8268
8010
8243
8067
8170
8135
8098
8206
8063
8218
8066
8182
8136
8100
8205
8006
8282
7950
8328
7938
8314
7970
8239
8049
8155
8140
8080
8195
8048
8199
8062
8144
8124
8091
8204
8024
8269
7995
8256
8017
8211
8084
8117
8177
8016
8251
7975
8311
7979
8303
8020
8233
8084
8146
8137
8071
8172
8055
8171
8096
8122
8186
8042
8270
7984
8325
7953
8315
7980
8249
8046
8155
8151
8078
8217
8014
8243
8016
8233
8063
8150
8135
8083
8203
8033
8211
8034
8186
8105
8121
8184
8021
8265
7960
8321
7935
8315
7970
8258
8042
8178
8131
8116
8197
8074
8207
8079
8148
8120
8069
8192
7994
8262
7976
8266
7993
8234
8073
8156
8167
8064
8236
7985
8291
7968
8276
8001
8214
8065
8130
8137
8073
8180
8060
8186
8098
8134
8177
8051
8263
7982
8324
7946
8328
7960
8258
8025
8184
8128
8103
8206
8037
8236
8028
8207
8064
8140
8141
8084
8230
8036
8244
8037
8222
8097
8153
8172
8049
8249
7964
8306
7935
8311
7953
8260
8036
8196
8120
8096
8175
8060
8177
8076
8148
8126
8084
8212
8013
8277
7971
8293
7976
8246
8036
8174
8133
8091
8212
8011
8262
7977
8269
8007
8213
8073
8143
8148
8081
8189
8060
8196
8083
8140
8158
8057
8241
7977
8315
7938
8325
7946
8276
8011
8212
8109
8121
8182
8048
8211
8038
8203
8077
8142
8141
8079
8219
8026
8261
8019
8239
8075
8171
8149
8079
8228
7989
8305
7955
8320
7967
8276
8026
8196
8089
8103
8161
8059
8180
8076
8162
8127
8082
8214
8012
8284
7964
8310
7968
8280
8017
8206
8104
8112
8183
8032
8250
8000
8266
8018
8211
8075
8134
8150
8078
8219
8050
8209
8079
8169
8151
8068
8224
7986
8303
7941
8330
7939
8296
7995
8220
8087
8143
8163
8071
8204
8048
8185
8077
8147
8168
8079
8230
8012
8264
7992
8254
8041
8208
8143
8118
8212
8013
8278
7968
8305
7961
8279
8021
8198
8095
8120
8168
8075
8186
8073
8168
8130
8095
8208
8017
8277
7962
8325
7960
8294
8000
8232
8078
8136
8166
8055
8230
8008
8253
8033
8211
8083
8135
8158
8074
8217
8033
8214
8047
8171
8123
8101
8220
8013
8290
7950
8332
7937
8306
7986
8240
8068
8152
8150
8080
8189
8051
8177
8085
8130
8152
8057
8225
7997
8275
7976
8272
8017
8221
8101
8133
8187
8041
8258
7977
8293
7969
8263
8018
8205
8097
8119
8168
8072
8182
8068
8186
8119
8112
8198
8019
8270
7958
8321
7940
8318
7975
8250
8067
8164
8144
8071
8207
8028
8223
8036
8200
8084
8123
8153
8058
8230
8026
8239
8040
8200
8108
8125
8192
8027
8272
7963
8317
7940
8310
7978
8247
8057
8182
8148
8102
8191
8070
8183
8088
8142
8155
8066
8228
7995
8280
7963
8295
7988
8246
8082
8174
8176
8086
8243
8008
8271
7976
8248
8005
8187
8081
8115
8150
8061
8192
8057
8181
8089
8116
8176
8027
8262
7965
8321
7939
8318
7962
8273
8044
8193
8138
8113
8197
8047
8219
8041
8191
8085
8132
8178
8058
8241
8013
8251
8023
8217
8085
8154
8174
8074
8265
7990
8315
7961
8309
7977
8251
8035
8157
8101
8084
8170
8065
8176
8074
8146
8153
8062
8229
8001
8298
7966
8324
7996
8282
8046
8185
8131
8092
8210
8017
8262
8007
8266
8028
8198
8095
8119
8167
8065
8211
8051
8197
8081
8139
8160
8044
8252
7974
8317
7941
8334
7963
8292
8026
8201
8101
8113
8175
8063
8221
8058
8180
8097
8119
8173
8050
8245
8005
8279
8004
8238
8065
8169
8149
8086
8235
7998
8306
7961
8306
7980
8250
8042
8186
8117
8108
8177
8072
8188
8072
8149
8143
8077
8219
7996
8293
7947
8316
7955
8281
8011
8193
8101
8114
8198
8040
8236
8014
8246
8039
8198
8106
8121
8185
8062
8218
8032
8207
8058
8149
8142
8055
8232
7985
8308
7944
8332
7949
8293
8005
8209
8077
8134
8164
8074
8210
8063
8188
8100
8123
8171
8047
8253
7994
8287
7985
8257
8035
8190
8126
8103
8210
8020
8272
7977
8296
7989
8267
8042
8188
8118
8115
8185
8071
8194
8070
8159
8143
8101
8229
8012
8295
7952
8324
7948
8310
8002
8233
8096
8143
8163
8055
8224
8024
8224
8049
8194
8099
8098
8156
8037
8214
8016
8227
8052
8178
8126
8094
8220
8010
8294
7954
8334
7963
8318
8012
8234
8078
8154
8151
8079
8193
8068
8181
8102
8126
8174
8049
8246
7982
8292
7969
8281
8017
8224
8099
8143
8182
8047
8258
7997
8284
7990
8257
8037
8173
8104
8100
8183
8060
8196
8069
8175
8121
8102
8207
8011
8277
7949
8322
7938
8309
7979
8241
8058
8160
8151
8078
8213
8043
8223
8059
8184
8119
8115
8190
8045
8246
8011
8242
8035
8197
8102
8112
8191
8015
8262
7952
8306
7945
8294
7991
8241
8085
8186
8176
8104
8192
8066
8178
8095
8118
8176
8044
8248
7983
8301
7954
8300
7996
8249
8080
8162
8167
8072
8241
8009
8269
8004
8246
8043
8170
8116
8101
8175
8058
8206
8049
8178
8108
8117
8194
8028
8275
7964
8329
7940
8322
7972
8264
8042
8175
8133
8105
8200
8054
8215
8063
8167
8111
8103
8195
8037
8260
8006
8266
8014
8223
8081
8140
8177
8048
8253
7982
8311
7964
8304
8000
8243
8066
8158
8130
8082
8170
8067
8184
8096
8140
8171
8050
8244
7998
8320
7960
8328
7981
8274
8041
8171
8130
8085
8201
8018
8242
8013
8244
8054
8184
8118
8096
8194
8043
8220
8044
8208
8106
8150
8189
8052
8267
7969
8325
7937
8317
7957
8254
8016
8179
8106
8109
8174
8055
8203
8070
8179
8132
8111
8205
8035
8270
7987
8285
7996
8239
8041
8157
8135
8063
8226
7999
8294
7981
8293
8000
8239
8063
8162
8138
8095
8175
8064
8188
8084
8136
8159
8056
8236
7985
8308
7952
8332
7963
8288
8029
8212
8117
8115
8190
8041
8233
8031
8232
8057
8158
8120
8092
8200
8040
8239
8042
8227
8084
8162
8166
8073
8246
7982
8313
7947
8324
7962
8286
8020
8207
8110
8122
8173
8073
8194
8068
8160
8113
8097
8188
8022
8268
7990
8311
7988
8270
8031
8196
8132
8106
8215
8026
8271
7987
8285
8001
8228
8058
8161
8134
8084
8184
8067
8206
8080
8158
8151
8073
8237
7996
8295
7937
8320
7938
8276
7986
8209
8089
8127
8165
8063
8236
8063
8253
8090
8182
8136
8086
8201
8028
8251
8013
8239
8051
8185
8139
8093
8226
8003
8288
7954
8318
7955
8281
8009
8200
8085
8136
8166
8083
8197
8079
8185
8125
8109
8206
8037
8275
7977
8315
7972
8287
8018
8223
8100
8129
8188
8041
8253
8000
8275
8012
8220
8059
8162
8129
8084
8187
8049
8207
8064
8165
8138
8095
8224
8006
8282
7945
8332
7942
8305
7984
8234
8060
8145
8147
8068
8200
8048
8204
8075
8154
8131
8087
8213
8025
8262
8005
8263
8037
8217
8117
8121
8206
8022
8271
7957
8303
7963
8285
8002
8208
8080
8140
8168
8085
8199
8075
8187
8116
8124
8198
8031
8270
7968
8313
7953
8311
7993
8248
8076
8155
8163
8063
8233
8010
8260
8018
8220
8067
8142
8134
8084
8212
8051
8227
8056
8187
8124
8113
8202
8023
8290
7962
8334
7948
8321
7984
8254
8063
8180
8150
8097
8205
8064
8189
8079
8148
8136
8088
8219
8019
8277
7988
8278
8013
8225
8081
8135
8166
8038
8245
7979
8291
7974
8292
8015
8226
8089
8145
8164
8085
8188
8065
8179
8102
8128
8189
8048
8278
7988
8329
7951
8310
7978
8264
8048
8178
8128
8083
8206
8030
8234
8027
8206
8075
8146
8148
8083
8229
8044
8241
8053
8221
8105
8137
8175
8035
8256
7954
8311
7938
8312
7965
8247
8037
8188
8133
8104
8192
8069
8187
8076
8145
8129
8076
8217
8009
8282
7982
8307
7993
8247
8062
8175
8162
8104
8247
8010
8277
7981
8278
8018
8215
8080
8135
8150
8084
8190
8052
8181
8089
8138
8174
8052
8257
7981
8321
7943
8328
7959
8279
8025
8199
8113
8113
8185
8038
8220
8039
8206
8083
8145
8150
8070
8233
8027
8260
8023
8234
8079
8159
8162
8076
8249
7991
8318
7956
8320
7978
8279
8039
8201
8124
8119
8171
8060
8177
8078
8163
8140
8087
8225
8016
8290
7967
8306
7973
8278
8026
8191
8120
8103
8208
8030
8257
7998
8270
8019
8211
8081
8142
8172
8089
8229
8069
8220
8087
8156
8152
8057
8232
7975
8304
7935
8326
7951
8302
8013
8217
8095
8137
8176
8066
8218
8054
8192
8087
8140
8166
8060
8223
8012
8267
7997
8242
8043
8189
8142
8095
8221
8000
8279
7952
8301
7973
8277
8029
8202
8104
8121
8183
8078
8187
8078
8165
8138
8096
8212
8020
8294
7966
8324
7955
8295
8011
8225
8098
8136
8186
8054
8243
8022
8265
8035
8215
8096
8141
8172
8078
8228
8040
8214
8060
8173
8137
8096
8229
8009
8308
7955
8340
7949
8313
7987
8227
8064
8144
8153
8078
8198
8058
8183
8093
8134
8162
8059
8222
7995
8272
7983
8276
8032
8219
8112
8135
8209
8049
8282
7984
8299
7980
8277
8037
8216
8110
8124
8177
8080
8199
8075
8175
8125
8093
8203
8018
8283
7959
8324
7946
8315
7992
8273
8100
8184
8181
8086
8225
8030
8237
8036
8196
8094
8132
8175
8065
8227
8022
8224
8039
8176
8107
8109
8203
8024
8283
7956
8315
7942
8309
7984
8240
8054
8155
8143
8092
8195
8063
8178
8089
8131
8160
8064
8231
8003
8295
7974
8283
8001
8229
8076
8141
8167
8050
8245
8005
8296
7994
8267
8026
8205
8103
8126
8179
8079
8215
8076
8198
8129
8127
8205
8040
8280
7962
8324
7940
8317
7968
8258
8031
8169
8129
8093
8190
8036
8216
8042
8188
8091
8127
8178
8052
8243
8019
8251
8030
8221
8103
8153
8187
8048
8262
7966
8308
7950
8306
7973
8253
8057
8175
8136
8094
8184
8075
8203
8096
8155
8169
8072
8242
8002
8302
7964
8317
7993
8268
8062
8179
8145
8086
8223
8019
8267
7999
8264
8040
8199
8100
8110
8164
8060
8208
8054
8193
8088
8131
8180
8050
8264
7977
8329
7944
8334
7953
8275
8029
8207
8124
8119
8187
8061
8217
8062
8191
8104
8123
8180
8053
8249
8008
8278
8016
8243
8082
8173
8165
8082
8246
7995
8314
7969
8311
7989
8251
8047
8186
8122
8107
8181
8065
8187
8083
8149
8150
8071
8233
8000
8303
7953
8318
7964
8280
8029
8207
8124
8118
8213
8044
8251
8026
8261
8044
8190
8101
8109
8168
8053
8222
8047
8215
8084
8160
8166
8081
8244
7992
8319
7943
8337
7957
8299
8015
8222
8101
8137
8180
8075
8205
8065
8171
8102
8116
8188
8050
8264
8009
8299
8006
8261
8037
8184
8125
8095
8219
8011
8270
7973
8301
7985
8262
8050
8185
8126
8108
8167
8065
8189
8080
8164
8147
8072
8219
8002
8302
7948
8330
7954
8312
8014
8223
8102
8145
8193
8070
8252
8043
8243
8055
8185
8108
8108
8189
8054
8236
8027
8239
8062
8171
8144
8101
8233
8004
8298
7948
8328
7955
8303
8005
8231
8082
8146
8165
8081
8194
8066
8183
8103
8120
8187
8049
8259
7989
8300
7984
8279
8025
8221
8108
8124
8200
8042
8271
7999
8295
7998
8265
8057
8191
8134
8113
8188
8065
8205
8073
8167
8130
8095
8214
8012
8293
7950
8328
7943
8316
7990
8241
8069
8151
8160
8078
8215
8043
8225
8059
8180
8114
8111
8191
8043
8252
8016
8244
8033
8186
8106
8113
8192
8014
8274
7958
8322
7960
8307
8001
8230
8069
8156
8153
8089
8198
8087
8198
8126
8147
8194
8058
8257
7991
8300
7949
8280
7979
8228
8062
8154
8163
8072
8234
8003
8255
7994
8245
8050
8179
8117
8106
8177
8058
8213
8065
8197
8129
8128
8204
8023
8274
7962
8335
7945
8331
7975
8266
8043
8178
8132
8109
8211
8071
8241
8082
8186
8122
8108
8191
8034
8255
8002
8262
8018
8226
8098
8153
8185
8064
8261
7983
8314
7963
8300
7992
8236
8071
8166
8152
8098
8198
8072
8189
8095
8141
8172
8058
8257
7990
8314
7961
8326
7982
8265
8045
8181
8134
8094
8215
8033
8259
8030
8249
8063
8186
8126
8099
8192
8058
8226
8048
8201
8100
8148
8195
8061
8273
7992
8334
7952
8325
7962
8267
8024
8186
8118
8122
8185
8065
8209
8071
8162
8119
8099
8198
8033
8274
7994
8291
8004
8248
8050
8170
8145
8082
8238
8002
8281
7972
8288
7994
8231
8060
8175
8154
8113
8219
8087
8199
8094
8155
8163
8073
8250
7995
8318
7949
8336
7962
8277
8013
8201
8108
8111
8192
8059
8244
8045
8250
8075
8196
8138
8098
8187
8030
8225
8020
8218
8071
8154
8153
8065
8231
7976
8299
7941
8323
7963
8289
8018
8208
8110
8134
8179
8074
8202
8073
8170
8115
8102
8188
8026
8271
7981
8303
7980
8271
8037
8206
8125
8110
8210
8022
8269
7987
8288
8010
8252
8064
8169
8133
8096
8199
8061
8210
8095
8174
8160
8081
8249
8012
8316
7961
8348
7959
8312
8005
8229
8091
8142
8169
8060
8219
8041
8222
8071
8180
8132
8092
8209
8034
8247
8014
8243
8055
8186
8132
8101
8224
8015
8297
7969
8323
7960
8292
8015
8214
8082
8137
8164
8084
8204
8083
8182
8118
8112
8203
8042
8293
7997
8326
7982
8299
8014
8232
8097
8135
8191
8053
8248
8002
8273
8013
8236
8061
8163
8130
8088
8203
8052
8216
8064
8170
8133
8102
8212
7999
8283
7952
8338
7947
8319
7987
8240
8064
8164
8155
8081
8204
8050
8210
8079
8158
8132
8094
8214
8027
8271
8001
8262
8029
8214
8112
8127
8201
8031
8280
7986
8322
7981
8301
8013
8217
8077
8142
8152
8083
8186
8071
8178
8119
8128
8192
8038
8266
7965
8314
7954
8316
7995
8259
8073
8161
8159
8074
8222
8019
8248
8026
8235
8072
8163
8145
8093
8226
8051
8236
8054
8195
8115
8128
8199
8027
8276
7969
8336
7941
8321
7980
8266
8059
8184
8145
8106
8198
8067
8205
8081
8149
8134
8080
8210
8013
8279
7993
8269
8003
8228
8069
8144
8161
8042
8246
8000
8321
7997
8299
8017
8230
8086
8154
8172
8096
8202
8067
8190
8109
8140
8198
8058
8273
7985
8329
7957
8333
7977
8273
8033
8179
8128
8092
8201
8037
8246
8037
8241
8073
8148
8141
8076
8208
8032
8240
8035
8216
8100
8150
8186
8063
8268
7976
8322
7938
8308
7964
8259
8035
8194
8129
8110
8190
8071
8190
8085
8162
8137
8091
8224
8024
8294
7981
8311
7992
8266
8068
8186
8154
8091
8233
8011
8275
7989
8278
8016
8221
8077
8135
8141
8069
8177
8047
8191
8083
8139
8178
8057
8259
7988
8321
7949
8337
7973
8282
8022
8205
8119
8124
8189
8056
8223
8044
8220
8092
8150
8163
8080
8244
8023
8242
8022
8231
8078
8157
8152
8076
8253
7999
8329
7973
8315
7961
8254
8025
8188
8110
8121
8187
8085
8192
8081
8160
8146
8084
8213
8005
8277
7961
8310
7968
8277
8032
8200
8126
8108
8211
8025
8259
8006
8280
8040
8225
8092
8147
8179
8086
8223
8061
8210
8093
8166
8174
8088
8251
7989
8318
7952
8336
7956
8290
8011
8225
8098
8140
8178
8072
8221
8064
8212
8096
8147
8175
8071
8241
8019
8264
7998
8241
8041
8182
8136
8103
8229
8009
8289
7966
8314
7977
8275
8027
8207
8115
8129
8185
8089
8206
8089
8170
8132
8082
8197
7996
8277
7954
8319
7956
8287
7997
8215
8099
8141
8204
8088
8270
8034
8261
8025
8204
8092
8141
8157
8063
8208
8042
8212
8064
8171
8143
8095
8222
7997
8307
7952
8336
7953
8315
7995
8238
8090
8161
8164
8080
8194
8050
8197
8093
8141
8170
8073
8254
8019
8296
7999
8268
8028
8205
8108
8124
8199
8027
8267
7977
8299
7979
8278
8029
8208
8105
8126
8180
8084
8210
8081
8173
8131
8109
8207
8025
8289
7959
8326
7954
8319
7999
8252
8076
8158
8168
8087
8232
8032
8248
8038
8202
8097
8128
8161
8059
8235
8032
8238
8055
8194
8125
8119
8207
8023
8285
7964
8336
7960
8315
7989
8240
8057
8166
8147
8096
8197
8071
8199
8105
8161
8179
8074
8247
8010
8301
7982
8302
8023
8249
8102
8151
8180
8065
8247
7995
8298
7997
8275
8037
8208
8102
8122
8172
8074
8208
8072
8186
8122
8124
8202
8031
8278
7963
8325
7937
8314
7974
8255
8049
8171
8145
8095
8210
8042
8230
8053
8200
8107
8136
8186
8070
8251
8027
8252
8039
8221
8106
8140
8186
8038
8270
7969
8316
7955
8321
7987
8243
8061
8171
8143
8102
8191
8070
8191
8098
8146
8169
8067
8236
8008
8307
7975
8316
7993
8255
8066
8173
8159
8097
8241
8014
8270
8000
8266
8039
8201
8107
8127
8185
8073
8216
8067
8201
8106
8133
8182
8038
8260
7964
8310
7936
8322
7951
8267
8025
8183
8123
8118
8208
8081
8256
8077
8205
8110
8121
8186
8057
8252
8010
8275
8017
8226
8067
8146
8156
8065
8251
7985
8306
7955
8307
7981
8245
8048
8172
8134
8100
8185
8071
8194
8100
8166
8181
8087
8260
8026
8331
7972
8336
7988
8274
8037
8187
8132
8118
8224
8037
8264
8025
8268
8062
8211
8122
8126
8196
8069
8224
8047
8195
8072
8137
8158
8043
8235
7974
8320
7945
8341
7967
8289
8025
8215
8120
8128
8174
8061
8208
8060
8168
8104
8110
8185
8043
8258
8002
8287
8001
8253
8047
8172
8134
8082
8223
7989
8273
7959
8291
7976
8225
8026
8150
8090
8070
8143
8033
8153
8059
8114
8126
8051
8213
7985
8297
7948
8325
7954
8286
8019
8225
8132
8157
8230
8104
8303
8090
8321
8135
8282
8208
8186
8259
8111
8289
8084
8271
8115
8202
8188
8114
8268
8012
8328
7967
8352
7977
8319
8029
8231
8108
8140
8177
8084
8202
8069
8183
8115
8119
8196
8050
8272
7994
8289
7981
8263
8022
8190
8117
8100
8195
8017
8263
7977
8284
7986
8250
8046
8168
8121
8086
8170
8057
8192
8070
8147
8128
8069
8217
7993
8292
7934
8317
7937
8282
7981
8214
8074
8127
8162
8063
8217
8037
8239
8069
8181
8118
8105
8211
8052
8250
8011
8214
8032
8172
8141
8114
8233
8010
8281
7943
8320
7960
8300
8001
8215
8076
8135
8155
8076
8190
8067
8174
8097
8110
8184
8033
8267
7984
8305
7974
8286
8014
8223
8101
8136
8198
8048
8256
8009
8294
8023
8267
8077
8191
8165
8125
8236
8092
8225
8083
8183
8136
8101
8217
8014
8305
7950
8334
7941
8318
7990
8249
8081
8170
8168
8093
8227
8061
8242
8083
8197
8150
8126
8230
8055
8271
8011
8255
8033
8203
8122
8124
8202
8024
8275
7968
8321
7975
8310
8020
8242
8095
8168
8169
8094
8208
8078
8187
8116
8116
8176
8025
8251
7968
8296
7936
8274
7970
8218
8057
8129
8139
8036
8212
7984
8215
7952
8157
7987
8090
8061
8030
8138
8006
8176
8031
8173
8113
8111
8210
8044
8319
8006
8396
8007
8387
8038
8325
8133
8257
8237
8215
8333
8200
8344
8193
8271
8229
8182
8286
8087
8320
8039
8304
8042
8245
8114
8158
8189
8063
8267
7982
8307
7965
8288
8002
8224
8067
8138
8134
8073
8161
8048
8141
8076
8094
8155
8006
8225
7941
8290
7929
8297
7963
8240
8030
8157
8133
8069
8200
8011
8246
8026
8237
8068
8168
8151
8098
8214
8049
8229
8044
8193
8101
8116
8174
8015
8249
7955
8317
7936
8319
7971
8265
8032
8174
8125
8090
8189
8070
8227
8095
8189
8165
8099
8219
8025
8271
7976
8272
7985
8223
8039
8136
8136
8050
8230
7983
8273
7963
8273
8002
8222
8072
8160
8172
8110
8238
8113
8237
8161
8180
8217
8091
8304
8019
8358
7977
8354
7978
8275
8034
8181
8112
8100
8190
8027
8221
8025
8206
8075
8171
8176
8104
8220
8027
8226
8020
8204
8083
8142
8162
8045
8259
7983
8326
7961
8335
7982
8295
8058
8207
8127
8123
8188
8074
8204
8100
8188
8175
8144
8259
8049
8306
7980
8286
7946
8209
7980
8106
8066
8012
8149
7937
8195
7918
8204
7952
8167
8016
8090
8104
8050
8163
8036
8193
8110
8200
8270
8211
8429
8164
8495
8126
8516
8137
8439
8158
8323
8208
8215
8268
8143
8292
8093
8251
8103
8172
8164
8072
8202
8009
8227
7987
8198
8030
8123
8107
8022
8184
7933
8234
7884
8250
7904
8201
7971
8147
8067
8070
8127
8033
8159
8060
8157
8149
8099
8230
8028
8304
7987
8332
7984
8286
8031
8215
8135
8125
8215
8036
8266
7997
8271
8016
8215
8072
8122
8131
8034
8146
7986
8129
8007
8091
8092
8018
8192
7959
8298
7948
8342
7958
8322
8022
8236
8127
8174
8214
8141
8305
8144
8300
8192
8269
8296
8199
8359
8128
8362
8087
8339
8124
8242
8174
8131
8238
8019
8288
7957
8297
7946
8235
7994
8170
8071
8089
8137
8043
8148
8033
8108
8075
8033
8157
7968
8242
7933
8299
7945
8287
8001
8220
8097
8131
8182
8051
8246
8017
8259
8015
8185
8064
8093
8116
8036
8178
8019
8207
8049
8155
8112
8065
8208
7992
8300
7947
8336
7956
8332
8049
8312
8197
8294
8346
8263
8369
8224
8353
8240
8268
8247
8115
8259
8000
8269
7972
8244
8000
8178
8077
8081
8163
7985
8231
7944
8263
7952
8246
7997
8163
8065
8088
8141
8061
8192
8067
8153
8103
8083
8193
8008
8260
7942
8299
7910
8240
7919
8165
7996
8082
8090
8003
8164
7959
8156
7962
8120
8015
8058
8094
7999
8154
7981
8189
8025
8193
8170
8199
8331
8155
8413
8070
8439
8058
8408
8080
8334
8162
8247
8231
8173
8268
8122
8261
8177
8232
8253
8127
8300
8035
8319
7988
8270
7983
8181
8016
8046
8076
7934
8158
7908
8203
7907
8157
7933
8091
8012
8038
8092
8001
8133
8020
8137
8085
8099
8227
8100
8391
8101
8496
8115
8490
8179
8472
8268
8383
8343
8261
8368
8173
8333
8110
8233
8099
8091
8123
7988
8138
7923
8141
7928
8096
7981
8007
8091
7923
8165
7866
8224
7889
8284
7983
8265
8113
8259
8255
8243
8366
8265
8394
8297
8320
8312
8180
8334
8058
8340
7985
8309
8002
8253
8062
8131
8118
8005
8169
7931
8189
7909
8148
7948
8094
8013
8002
8049
7947
8077
7933
8061
7975
7990
8061
7936
8186
7919
8305
7931
8336
7968
8253
8030
8187
8153
8168
8317
8195
8366
8209
8357
8295
8293
8333
8152
8320
8058
8294
8034
8233
8082
8134
8164
8037
8236
7963
8267
7924
8288
7985
8252
8071
8199
8185
8152
8227
8112
8226
8106
8142
8156
8063
8247
7987
8277
7915
8245
7915
8213
7982
8120
8062
8002
8121
7915
8137
7872
8094
7919
8064
8008
8036
8129
8034
8226
8072
8233
8134
8192
8252
8151
8372
8106
8473
8101
8510
8164
8468
8192
8357
8248
8234
8278
8140
8289
8143
8267
8182
8149
8210
8065
8283
8011
8294
8012
8242
8045
8160
8136
8061
8221
7988
8294
7961
8285
7977
8230
8043
8162
8128
8104
8167
8043
8138
8047
8104
8129
8036
8203
7960
8276
7924
8289
7927
8255
7999
8178
8097
8099
8189
8026
8206
7967
8152
7959
8076
7996
7983
8056
7923
8102
7911
8084
7959
8069
8084
8015
8220
8013
8403
8068
8467
8105
8452
8193
8409
8296
8318
8351
8247
8360
8195
8274
8185
8138
8195
8033
8252
7966
8261
7953
8220
7995
8155
8096
8073
8204
8010
8287
8007
8317
8027
8285
8092
8205
8156
8117
8214
8095
8224
8089
8146
8128
8056
8213
7977
8276
7926
8305
7922
8269
7998
8226
8110
8137
8183
8066
8253
8067
8278
8098
8214
8153
8131
8226
8055
8264
8041
8234
8064
8177
8147
8115
8258
8029
8339
7981
8363
8011
8355
8054
8250
8101
8126
8148
8060
8160
8028
8134
8084
8067
8158
7999
8219
7951
8276
7947
8256
8021
8252
8159
8172
8241
8086
8290
7995
8235
7937
8155
7966
8056
8011
7981
8069
7951
8090
7983
8080
8063
8042
8215
8026
8346
8016
8395
8013
8371
8043
8318
8187
8241
8233
8125
8251
8077
8240
8067
8152
8102
8056
8145
7986
8232
8037
8325
8169
8330
8266
8256
8353
8166
8434
8096
8429
8059
8380
8078
8272
8132
8174
8179
8092
8193
8064
8150
8089
8094
8181
8026
8253
7965
8282
7909
8220
7900
8110
7975
8061
8110
8020
8232
8024
8321
8069
8276
8082
8185
8170
8123
8255
8118
8306
8188
8296
8223
8173
8249
8031
8307
7975
8361
7974
8359
8034
8306
8116
8205
8166
8068
8150
7964
8089
7948
8018
7990
7949
8067
7904
8137
7886
8152
7937
8152
8084
8158
8253
8150
8436
8179
8523
8197
8484
8156
8321
8148
8182
8171
8083
8181
8072
8193
8106
8099
8156
8010
8240
7954
8298
7930
8292
7945
8208
8015
8129
8132
8043
8191
7995
8219
7982
8162
7992
8063
8056
8016
8133
7987
8179
7996
8141
8063
8086
8169
8021
8314
8048
8452
8070
8443
8110
8402
8172
8271
8203
8155
8223
8097
8239
8108
8197
8190
8137
8267
8059
8307
8013
8300
8013
8235
8076
8151
8137
7989
8150
7874
8149
7830
8117
7859
8070
7939
8003
8016
7954
8066
7973
8119
8101
8200
8309
8227
8452
8141
8475
8101
8471
8118
8402
8173
8312
8266
8222
8305
8116
8305
8084
8263
8101
8178
8163
8087
8207
8021
8213
7989
8147
8001
8033
8052
7903
8111
7817
8124
7761
8121
7800
8102
7907
8074
8030
8063
8166
8078
8239
8160
8270
8262
8221
8380
8227
8506
8204
8506
8197
8444
8199
8298
8245
8168
8302
8103
8368
8067
8354
8080
8272
8097
8156
8161
8071
8170
8022
8147
8039
8066
8104
7990
8205
7944
8290
7908
8304
7948
8302
8063
8259
8173
8166
8233
8099
8285
8088
8244
8093
8135
8122
8025
8155
7948
8156
7926
8127
7966
8068
8062
7988
8179
7929
8253
7934
8333
8006
8335
8097
8250
8171
8182
8235
8106
8188
8070
8120
8079
8017
8138
7912
8140
7827
8166
7852
8161
7930
8129
8109
8135
8258
8109
8346
8078
8337
8120
8372
8299
8350
8340
8274
8419
8243
8314
8111
8131
8109
8002
8178
7934
8244
7873
8262
7886
8241
7970
8192
8119
8197
8270
8195
8350
8195
8340
8228
8273
8250
8132
8277
8055
8303
8037
8285
8083
8192
8142
8105
8231
8005
8274
7946
8293
7954
8247
8013
8158
8066
8085
8150
8062
8178
8092
8187
8166
8134
8265
8061
8345
8016
8377
8009
8328
8015
8214
8091
8108
8165
8019
8216
7976
8202
7981
8146
8033
8067
8091
8000
8127
7952
8112
7976
8067
8026
7956
8078
7829
8118
7785
8163
7817
8192
7899
8140
8013
8103
8117
8033
8178
8099
8311
8260
8328
8363
8274
8452
8255
8511
8204
8455
8239
8434
8326
8277
8308
8111
8375
8074
8380
8041
8321
8061
8219
8114
8115
8148
8036
8123
7993
8067
8011
7979
8074
7880
8104
7776
8128
7771
8142
7856
8127
7992
8084
8113
8047
8294
8138
8382
8209
8387
8302
8329
8355
8252
8397
8208
8383
8185
8307
8230
8189
8283
8069
8321
7970
8335
7935
8290
7966
8210
8039
8135
8117
8051
8148
8031
8159
8064
8096
8128
8033
8191
7952
8226
7902
8192
7919
8122
7981
8045
8099
7979
8202
7946
8222
7939
8255
8072
8258
8196
8217
8273
8153
8299
8154
8234
8142
8116
8196
8010
8236
7898
8248
7848
8213
7872
8135
7934
8060
8057
8069
8265
8154
8368
8190
8379
8323
8336
8334
8151
8305
8067
8290
8063
8220
8136
8155
8224
8069
8308
8005
8355
7977
8339
8033
8300
8112
8198
8175
8114
8205
8083
8214
8115
8157
8171
8050
8209
7934
8205
7845
8108
7760
7975
7781
7854
7871
7785
7971
7772
8074
7858
8157
7991
8200
8197
8277
8393
8357
8559
8442
8549
8472
8455
8478
8263
8454
8096
8447
8034
8376
7991
8264
8019
8156
8089
8038
8140
8004
8181
8029
8159
8079
8091
8189
8094
8307
8088
8371
8165
8365
8190
8220
8219
8077
8269
7988
8319
7960
8299
7970
8236
8045
8165
8138
8090
8176
8058
8153
8062
8090
8094
7980
8163
7908
8229
7876
8222
7898
8184
7964
8112
8078
8036
8186
7987
8226
7988
8237
8006
8136
8041
8017
8081
7956
8116
7963
8108
8016
8080
8130
8019
8287
8054
8459
8099
8518
8188
8506
8210
8340
8243
8232
8313
8176
8313
8162
8279
8188
8147
8200
8038
8233
7955
8214
7943
8180
8000
8115
8108
8031
8215
7950
8233
7904
8245
7943
8215
8057
8217
8200
8185
8275
8121
8236
8153
8219
8244
8135
8289
8041
8365
8017
8387
8024
8347
8088
8251
8153
8137
8216
8039
8238
8013
8224
8029
8149
8088
8080
8160
8036
8222
8030
8199
8059
8122
8124
8017
8196
7923
8249
7879
8268
7892
8216
7964
8161
8059
8080
8134
8025
8152
8019
8130
8076
8067
8145
8016
8269
7996
8307
8008
8294
8099
8238
8183
8158
8294
8109
8417
8124
8422
8115
8373
8176
8250
8179
8110
8175
8031
8121
7986
8037
8040
7967
8135
7901
8206
7863
8258
7897
8271
8029
8271
8196
8258
8353
8220
8393
8198
8360
8145
8218
8130
8086
8161
8017
8203
7990
8198
8059
8205
8188
8111
8229
7964
8248
7905
8312
7989
8347
8055
8226
8074
8100
8159
8079
8215
8126
8255
8204
8206
8272
8087
8302
8011
8350
8044
8345
8056
8231
8124
8108
8188
8016
8224
7937
8218
7950
8183
8018
8128
8100
8068
8162
8034
8152
8013
8110
8117
8088
8226
8001
8295
7931
8305
7904
8270
7975
8219
8090
8164
8200
8141
8317
8145
8300
8118
8211
8177
8116
8213
8023
8239
7974
8177
7966
8099
8028
8017
8146
7956
8240
7938
8328
7995
8344
8049
8266
8154
8206
8227
8141
8242
8083
8168
8099
8106
8187
8043
8309
8028
8380
8058
8425
8156
8363
8196
8214
8218
8092
8258
8005
8259
8000
8241
8071
8202
8186
8119
8225
8080
8238
8089
8196
8153
8129
8235
8039
8324
7971
8339
7944
8309
7971
8224
8040
8138
8118
8057
8179
8035
8186
8047
8117
8071
8019
8114
7923
8144
7906
8187
7960
8137
8017
8055
8140
8003
8290
8025
8397
8081
8414
8162
8383
8235
8283
8255
8142
8240
8093
8188
8115
8136
8244
8139
8373
8056
8387
8021
8374
8036
8283
8088
8160
8139
8053
8197
7981
8193
7932
8103
7946
8018
8004
7966
8096
7952
8120
7977
8140
8068
8096
8199
8057
8360
8080
8464
8081
8467
8108
8368
8133
8232
8184
8135
8206
8066
8208
8083
8143
8107
8047
8163
7960
8188
7897
8177
7919
8130
7972
8056
8094
7993
8215
7985
8323
7993
8295
8051
8322
8230
8323
8365
8310
8429
8313
8379
8237
8209
8229
8048
8233
7926
8246
7855
8224
7882
8176
7957
8111
8091
8092
8202
8028
8238
8043
8238
8111
8225
8255
8180
8319
8129
8318
8082
8240
8101
8155
8201
8061
8262
7969
8301
7912
8284
7935
8209
7974
8093
8039
8020
8086
7970
8112
8045
8140
8123
8064
8220
8039
8335
8060
8393
8066
8320
8111
8207
8188
8118
8235
7967
8193
7873
8140
7908
8131
8050
8147
8178
8097
8223
8072
8203
8107
8168
8220
8131
8352
8068
8398
8008
8384
7988
8279
8015
8194
8125
8165
8264
8134
8308
8109
8308
8200
8260
8245
8157
8309
8113
8349
8095
8301
8149
8214
8198
8081
8254
7985
8307
7945
8304
7956
8250
8019
8190
8129
8143
8212
8100
8230
8090
8158
8120
8075
8223
8009
8279
7948
8283
7927
8205
7953
8111
8028
8003
8117
7943
8187
7931
8193
7964
8157
8052
8130
8175
8104
8255
8094
8236
8113
8167
8164
8070
8242
7984
8314
7961
8374
7987
8322
8041
8247
8142
8157
8180
8063
8205
8046
8204
8103
8154
8178
8082
8227
8012
8262
8009
8245
8049
8157
8115
8062
8213
7994
8287
7958
8312
7958
8251
8048
8244
8192
8199
8262
8159
8283
8168
8231
8189
8110
8224
8011
8280
7916
8243
7854
8160
7883
8083
7984
8015
8103
7979
8200
7966
8216
8039
8292
8214
8296
8357
8284
8413
8201
8284
8048
8077
8009
7924
8082
7844
8158
7819
8227
7856
8231
7969
8243
8199
8350
8423
8336
8455
8321
8443
8313
8318
8313
8193
8353
8098
8358
8050
8322
8087
8246
8154
8129
8223
8032
8281
7970
8294
7963
8235
8008
8177
8089
8094
8135
8038
8150
8044
8117
8072
8026
8115
7905
8166
7837
8208
7848
8197
7893
8126
7987
8069
8112
8017
8201
8041
8312
8117
8264
8144
8189
8225
8107
8267
8060
8244
8083
8243
8236
8239
8371
8148
8420
8085
8447
8025
8345
8007
8241
8083
8179
8183
8102
8213
8078
8198
8093
8122
8152
8045
8234
7994
8289
7973
8247
7974
8175
8056
8083
8152
8020
8255
7989
8287
7979
8264
8049
8220
8128
8127
8187
8076
8198
8063
8162
8118
8085
8200
8022
8295
7969
8342
7955
8335
8012
8292
8127
8203
8175
8096
8214
8040
8220
8030
8168
8075
8090
8128
8007
8175
7982
8202
8011
8180
8109
8131
8217
8039
8306
8006
8363
7985
8341
8024
8267
8100
8197
8174
8113
8200
8059
8165
8080
8116
8158
8048
8242
7997
8320
7997
8335
8029
8270
8116
8166
8173
8064
8234
7984
8238
7955
8181
7950
8078
8007
8014
8085
7987
8144
8042
8196
8154
8183
8291
8177
8456
8159
8500
8074
8424
8055
8338
8107
8222
8178
8139
8223
8068
8257
8100
8267
8191
8189
8265
8107
8291
8035
8283
8053
8233
8098
8131
8162
8003
8227
7929
8257
7913
8264
7942
8190
8011
8123
8108
8087
8213
8103
8227
8130
8153
8164
8040
8222
7976
8301
7958
8306
7975
8257
8073
8173
8134
8053
8175
7975
8235
7999
8254
8043
8182
8107
8103
8186
8065
8234
8076
8223
8172
8239
8304
8144
8368
8053
8394
8000
8390
8022
8318
8051
8197
8126
8077
8141
7988
8120
7970
8067
8018
8029
8103
7952
8131
7869
8151
7924
8197
8100
8227
8295
8224
8451
8231
8537
8160
8452
8104
8328
8113
8209
8175
8123
8211
8077
8188
8090
8138
8154
8049
8221
7965
8278
7926
8301
7960
8250
8005
8152
8091
8060
8179
8004
8218
7994
8225
8052
8200
8149
8137
8243
8082
8254
8059
8210
8090
8116
8138
8018
8225
7961
8319
7943
8323
7955
8261
7994
8162
8080
8116
8187
8064
8183
8035
8142
8085
8070
8168
8014
8248
7991
8316
8040
8299
8106
8231
8192
8135
8291
8069
8348
8031
8338
8055
8325
8164
8252
8206
8145
8240
8095
8205
8082
8126
8138
8047
8209
7948
8274
7912
8297
7941
8272
8012
8208
8109
8125
8191
8042
8230
8030
8243
8083
8204
8144
8110
8207
8032
8224
8009
8197
8043
8149
8164
8072
8238
7990
8325
7971
8377
8021
8353
8085
8285
8216
8243
8296
8185
8289
8135
8221
8155
8108
8191
8014
8257
7967
8279
7951
8221
7965
8121
8046
8042
8145
7961
8200
7924
8233
7982
8226
8084
8221
8225
8192
8291
8148
8284
8157
8207
8178
8099
8240
7989
8290
7929
8319
7930
8262
7968
8191
8057
8114
8152
8052
8226
8064
8275
8153
8259
8207
8140
8257
8058
8267
8024
8231
8032
8159
8116
8072
8204
7988
8268
7938
8323
7979
8322
8051
8257
8140
8156
8156
8052
8143
8026
8111
8062
8059
8178
8032
8286
7990
8325
7982
8322
8048
8240
8103
8120
8179
8045
8259
8020
8288
8023
8245
8068
8171
8177
8137
8267
8118
8302
8161
8238
8174
8129
8246
8019
8301
7954
8330
7944
8316
7999
8252
8095
8171
8186
8120
8240
8085
8239
8086
8155
8127
8079
8205
8008
8237
7964
8212
7989
8168
8080
8110
8218
8066
8351
8073
8428
8085
8398
8094
8289
8141
8174
8177
8093
8206
8077
8171
8110
8105
8197
8020
8238
7925
8270
7904
8252
7936
8189
8026
8121
8146
8051
8213
7996
8238
8030
8259
8124
8215
8212
8139
8269
8083
8240
8061
8189
8129
8120
8201
7987
8238
7894
8264
7865
8219
7898
8163
7963
8069
8054
8030
8162
8064
8253
8147
8265
8271
8217
8354
8141
8408
8099
8365
8104
8291
8166
8231
8294
8155
8350
8040
8342
8010
8321
8040
8228
8089
8128
8140
8051
8147
8030
8130
8067
8059
8130
7976
8219
7954
8322
7951
8316
7974
8247
8052
8180
8153
8078
8191
8012
8241
8049
8250
8109
8184
8192
8106
8252
8067
8274
8075
8230
8135
8151
8210
8054
8283
7966
8330
7946
8308
7951
8224
8018
8135
8091
8062
8151
8023
8151
8046
8127
8134
8073
8222
8012
8296
7998
8317
8050
8300
8128
8203
8188
8068
8212
7917
8164
7850
8116
7877
8066
7963
8038
8086
8038
8207
8101
8238
8205
8273
8378
8242
8462
8161
8494
8112
8482
8124
8416
8169
8298
8232
8171
8262
8107
8296
8087
8252
8124
8182
8197
8110
8262
8044
8237
8013
8191
8054
8113
8134
8001
8210
7922
8247
7869
8213
7877
8165
7964
8141
8104
8101
8199
8121
8282
8172
8220
8206
8136
8285
8050
8308
7975
8299
7970
8246
8032
8164
8124
8060
8193
7978
8243
7993
8287
8045
8231
8103
8136
8174
8090
8233
8089
8246
8151
8190
8210
8094
8285
7997
8331
7946
8341
7972
8292
8030
8208
8118
8119
8183
8048
8214
8039
8174
8072
8113
8144
8044
8229
7998
8241
7997
8218
8043
8139
8131
8039
8228
7980
8277
7930
8289
7954
8235
8004
8143
8060
8047
8118
8024
8151
8066
8157
8157
8088
8241
8039
8341
8004
8358
8028
8352
8111
8284
8209
8187
8283
8115
8346
8100
8349
8118
8281
8165
8198
8229
8110
8252
8072
8231
8104
8155
8150
8038
8209
7932
8232
7858
8238
7842
8162
7885
8084
7960
7989
8064
8010
8173
8042
8198
8139
8223
8300
8223
8407
8168
8453
8188
8428
8216
8328
8260
8188
8293
8057
8330
7992
8318
7988
8282
8068
8223
8152
8161
8221
8099
8205
8079
8156
8137
8080
8221
8014
8301
7949
8307
7928
8255
7973
8185
8076
8108
8160
8030
8212
7989
8205
8022
8194
8095
8118
8156
8044
8199
8015
8198
8044
8153
8127
8073
8215
7994
8314
7959
8345
7960
8312
8004
8226
8095
8149
8168
8087
8209
8066
8194
8115
8168
8219
8106
8282
8009
8283
7966
8233
7993
8177
8087
8087
8171
7998
8252
7977
8312
8031
8322
8120
8286
8189
8180
8219
8107
8249
8122
8212
8172
8128
8232
8012
8285
7948
8322
7938
8295
7970
8219
8079
8152
8165
8062
8210
8021
8212
8033
8166
8093
8109
8152
8020
8205
7999
8197
8013
8163
8101
8094
8200
8027
8335
8032
8435
8086
8455
8144
8347
8172
8232
8217
8155
8271
8134
8251
8142
8172
8219
8101
8288
8018
8313
7965
8271
7978
8201
8047
8094
8132
8004
8198
7947
8229
7940
8201
8015
8164
8106
8126
8204
8089
8223
8085
8211
8165
8153
8244
8039
8267
7919
8265
7875
8249
7912
8194
7989
8102
8060
8007
8142
7987
8180
8053
8196
8115
8127
8201
8069
8278
8041
8285
8063
8266
8196
8260
8347
8226
8483
8197
8513
8120
8440
8087
8303
8091
8185
8175
8112
8208
8079
8182
8096
8140
8192
8075
8276
8011
8321
7970
8310
7989
8250
8070
8173
8159
8067
8205
7984
8224
7961
8190
8002
8123
8060
8039
8110
7974
8117
7983
8132
8049
8085
8153
8010
8254
7963
8327
7946
8349
8009
8309
8106
8259
8207
8175
8247
8101
8250
8088
8209
8145
8124
8210
8044
8271
8022
8306
8049
8250
8085
8150
8171
8076
8272
8007
8323
7973
8308
7997
8244
8063
8174
8150
8109
8203
8078
8196
8096
8120
8150
8037
8232
7971
8299
7944
8295
7946
8236
7995
8142
8090
8064
8175
8012
8243
8021
8249
8071
8200
8145
8123
8239
8124
8318
8116
8271
8156
8199
8232
8105
8302
8007
8340
7962
8343
7985
8308
8046
8209
8133
8137
8192
8069
8198
8057
8152
8098
8075
8171
8013
8245
7965
8252
7977
8225
8021
8133
8109
8053
8238
8058
8375
8059
8363
8049
8251
8026
8105
8069
8019
8106
7985
8110
8024
8070
8112
8018
8202
7970
8323
8013
8438
8106
8455
8210
8389
8295
8284
8345
8174
8351
8123
8307
8115
8214
8175
8144
8264
8099
8287
8065
8249
8108
8174
8171
8076
8251
7986
8314
7951
8334
7958
8266
8004
8191
8086
8101
8160
8056
8173
8065
8159
8114
8091
8183
8011
8255
7971
8290
7971
8250
8018
8182
8119
8094
8208
8010
8261
7982
8268
7995
8229
8060
8152
8130
8090
8195
8058
8198
8067
8146
8149
8075
8232
7989
8304
7941
8326
7946
8307
8010
8230
8108
8142
8182
8067
8229
8048
8237
8075
8162
8127
8092
8215
8037
8256
8017
8236
8064
8189
8161
8123
8252
8030
8320
7976
8338
7969
8299
8022
8213
8090
8136
8168
8081
8203
8081
8171
8119
8107
8202
8035
8281
7978
8326
7981
8295
8030
8228
8116
8143
8214
8057
8266
8012
8282
8017
8230
8067
8146
8128
8083
8201
8065
8236
8114
8208
8178
8120
8258
8040
8345
7988
8381
7993
8357
8023
8248
8089
8154
8162
8066
8204
8037
8166
8024
8089
8074
8022
8157
7995
8244
7988
8233
8004
8157
8087
8104
8249
8115
8413
8117
8449
8080
8392
8121
8305
8162
8185
8197
8101
8201
8076
8178
8126
8145
8234
8061
8297
7993
8340
7986
8328
8014
8239
8089
8171
8213
8131
8307
8078
8315
8061
8264
8077
8143
8136
8067
8187
8040
8223
8058
8179
8122
8104
8203
8012
8278
7943
8326
7937
8312
7976
8240
8050
8161
8146
8079
8191
8052
8189
8079
8147
8132
8066
8213
8013
8276
8008
8306
8037
8234
8110
8149
8196
8063
8281
8001
8321
7980
8283
8008
8214
8087
8130
8162
8087
8194
8073
8181
8111
8117
8192
8039
8276
7979
8332
7956
8330
7994
8259
8071
8172
8148
8079
8216
8029
8260
8046
8239
8092
8168
8178
8101
8237
8049
8238
8053
8204
8121
8135
8205
8040
8272
7973
8339
7967
8346
8011
8283
8069
8180
8130
8080
8175
8051
8175
8074
8144
8153
8086
8230
8015
8283
7978
8291
7998
8246
8079
8165
8184
8080
8255
8010
8314
8013
8309
8049
8253
8127
8171
8183
8092
8226
8092
8210
8135
8152
8205
8066
8271
7979
8330
7953
8339
7982
8270
8050
8201
8150
8118
8211
8051
8245
8054
8229
8105
8151
8176
8082
8244
8037
8254
8037
8226
8103
8147
8181
8065
8265
7975
8324
7964
8323
7982
8270
8053
8191
8140
8117
8200
8086
8205
8097
8156
8159
8084
8236
8019
8304
7987
8320
7993
8267
8061
8179
8154
8100
8236
8018
8274
8002
8274
8029
8212
8099
8138
8178
8084
8211
8075
8215
8115
8143
8175
8046
8257
7975
8325
7941
8331
7962
8285
8032
8224
8145
8144
8207
8074
8227
8055
8206
8100
8143
8177
8075
8256
8035
8275
8020
8230
8076
8172
8158
8085
8252
8004
8324
7974
8323
7988
8281
8044
8203
8138
8122
8201
8080
8200
8089
8157
8150
8072
8229
8011
8301
7975
8323
7981
8285
8044
8212
8137
8128
8218
8049
8266
8018
8266
8039
8221
8115
8147
8193
8086
8228
8053
8216
8088
8167
8170
8088
8263
7997
8323
7957
8342
7959
8300
8012
8213
8106
8137
8185
8077
8217
8066
8199
8104
8137
8186
8072
8255
8022
8284
8015
8266
8082
8213
8163
8121
8252
8021
8306
7980
8319
7988
8277
8048
8198
8118
8111
8181
8073
8196
8087
8181
8165
8103
8241
8019
8310
7967
8329
7973
8318
8033
8242
8127
8151
8211
8077
8266
8053
8285
8073
8219
8111
8131
8187
8073
8230
8035
8217
8064
8169
8157
8100
8240
7994
8308
7954
8347
7980
8325
8034
8254
8120
8165
8185
8091
8223
8076
8198
8111
8136
8192
8070
8268
8008
8296
7993
8279
8042
8217
8128
8130
8224
8038
8283
7987
8310
7997
8270
8047
8193
8119
8126
8198
8094
8225
8095
8184
8148
8089
8212
8004
8294
7956
8333
7957
8316
8008
8242
8090
8164
8178
8067
8231
8039
8253
8062
8200
8105
8120
8189
8051
8244
8040
8251
8061
8190
8133
8114
8235
8039
8324
7980
8352
7969
8317
8010
8236
8078
8154
8156
8086
8202
8076
8193
8113
8151
8196
8074
8275
8008
8316
7988
8286
8015
8239
8104
8146
8199
8071
8263
8004
8294
8002
8256
8039
8183
8114
8107
8190
8069
8214
8076
8186
8151
8138
8237
8047
8313
7967
8335
7939
8316
7988
8260
8075
8172
8155
8084
8213
8051
8239
8066
8196
8119
8119
8200
8053
8261
8029
8261
8047
8218
8127
8140
8208
8038
8282
7967
8328
7959
8308
8003
8245
8079
8168
8159
8104
8206
8078
8186
8107
8137
8187
8058
8252
7990
8312
7965
8309
8000
8263
8108
8190
8186
8088
8239
8016
8280
8010
8262
8067
8188
8125
8109
8200
8069
8221
8067
8191
8120
8131
8208
8033
8270
7953
8332
7948
8328
7977
8265
8051
8182
8150
8118
8211
8061
8217
8069
8188
8128
8120
8209
8047
8272
8019
8290
8032
8236
8111
8164
8208
8088
8286
8001
8321
7963
8296
7992
8230
8062
8167
8144
8093
8198
8077
8206
8121
8155
8181
8059
8249
7983
8307
7969
8332
7995
8274
8064
8191
8156
8105
8236
8040
8277
8032
8255
8076
8198
8145
8120
8212
8066
8238
8060
8221
8119
8154
8200
8058
8277
7984
8343
7959
8345
7982
8288
8047
8206
8142
8127
8196
8068
8204
8076
8182
8124
8104
8211
8044
8280
8000
8299
8015
8246
8081
8172
8158
8080
8243
7995
8294
7967
8293
7994
8228
8054
8153
8130
8096
8204
8089
8209
8113
8163
8185
8065
8256
7991
8323
7961
8341
7976
8289
8037
8215
8146
8134
8227
8072
8268
8063
8259
8086
8198
8145
8106
8209
8050
8253
8049
8233
8098
8165
8174
8079
8252
7979
8316
7943
8325
7964
8288
8036
8216
8121
8138
8184
8076
8206
8085
8185
8139
8117
8217
8056
8316
8022
8330
8009
8297
8078
8228
8160
8130
8235
8033
8286
7998
8294
8012
8238
8067
8167
8139
8089
8199
8067
8204
8090
8161
8150
8064
8236
8003
8330
7971
8350
7968
8314
8023
8223
8103
8131
8176
8052
8221
8039
8238
8081
8177
8142
8104
8217
8038
8256
8018
8233
8054
8169
8137
8084
8218
7996
8297
7963
8340
7982
8306
8027
8210
8085
8129
8164
8077
8200
8083
8184
8124
8106
8214
8038
8285
7981
8312
7974
8285
8020
8225
8120
8134
8201
8043
8265
8011
8283
8013
8241
8071
8170
8150
8102
8223
8076
8230
8094
8184
8156
8107
8243
8025
8323
7963
8353
7973
8334
8010
8252
8096
8159
8171
8083
8221
8064
8222
8083
8156
8143
8088
8227
8037
8281
8018
8261
8050
8207
8120
8125
8214
8025
8287
7973
8315
7974
8304
8034
8237
8109
8150
8167
8077
8180
8069
8168
8114
8124
8207
8040
8291
7984
8332
7977
8330
8020
8266
8108
8170
8185
8088
8262
8039
8279
8031
8237
8078
8164
8151
8094
8221
8058
8229
8070
8189
8127
8115
8222
8029
8296
7968
8348
7963
8339
8006
8277
8093
8183
8154
8088
8205
8065
8227
8096
8172
8142
8080
8210
8010
8267
7985
8273
8023
8228
8097
8136
8184
8045
8275
7995
8319
8000
8308
8037
8237
8102
8161
8177
8091
8224
8095
8214
8153
8163
8234
8076
8314
8008
8358
7980
8343
8002
8283
8084
8188
8165
8110
8238
8044
8251
8041
8240
8092
8147
8152
8085
8204
8024
8219
8034
8195
8097
8117
8188
8034
8276
7971
8325
7947
8342
8009
8285
8064
8190
8142
8105
8191
8076
8224
8110
8177
8170
8099
8248
8042
8297
7981
8294
8004
8245
8077
8165
8174
8084
8254
8019
8310
7994
8290
8032
8229
8105
8160
8174
8092
8212
8081
8201
8128
8144
8191
8053
8269
7987
8336
7953
8341
7981
8285
8045
8184
8117
8092
8183
8038
8219
8039
8205
8084
8139
8156
8090
8254
8054
8279
8051
8238
8101
8165
8196
8074
8273
7995
8337
7972
8334
7989
8291
8063
8206
8141
8133
8200
8085
8205
8094
8170
8159
8093
8222
8005
8291
7980
8318
7989
8276
8063
8195
8143
8106
8236
8032
8280
8007
8280
8031
8216
8101
8139
8161
8087
8230
8069
8208
8090
8143
8168
8054
8261
7987
8327
7944
8335
7955
8288
8022
8205
8114
8130
8194
8072
8236
8078
8230
8117
8168
8199
8097
8269
8030
8277
8028
8243
8077
8183
8165
8103
8253
8009
8313
7970
8316
7976
8277
8036
8193
8115
8120
8186
8079
8207
8095
8171
8137
8078
8221
8024
8317
7991
8360
8005
8326
8056
8246
8153
8151
8232
8074
8274
8026
8278
8048
8219
8100
8135
8180
8082
8236
8065
8223
8086
8175
8165
8092
8250
7999
8323
7956
8342
7954
8308
8009
8223
8090
8134
8160
8068
8200
8059
8196
8100
8138
8168
8052
8248
8019
8303
8021
8277
8048
8199
8128
8108
8207
8016
8283
7989
8310
7979
8270
8033
8205
8118
8121
8188
8083
8206
8094
8179
8150
8095
8228
8026
8305
7969
8333
7961
8312
8013
8231
8087
8146
8179
8060
8229
8012
8249
8052
8217
8111
8145
8203
8103
8268
8069
8256
8084
8203
8156
8117
8229
8014
8311
7971
8351
7967
8328
8013
8239
8077
8159
8164
8097
8205
8070
8194
8100
8132
8184
8090
8283
8019
8294
7971
8255
8002
8210
8100
8128
8197
8066
8273
8000
8310
7998
8279
8063
8234
8152
8142
8208
8101
8243
8113
8216
8176
8158
8247
8045
8307
7970
8334
7948
8314
7980
8243
8068
8171
8161
8079
8218
8037
8228
8063
8206
8115
8122
8177
8054
8247
8035
8255
8057
8215
8130
8129
8210
8039
8289
7975
8333
7957
8306
7983
8236
8062
8170
8163
8103
8203
8086
8198
8106
8135
8182
8068
8253
8005
8303
7978
8309
8006
8249
8086
8161
8173
8075
8252
8016
8298
8012
8267
8041
8192
8113
8117
8187
8074
8222
8073
8191
8125
8129
8205
8041
8288
7982
8343
7948
8331
7974
8269
8049
8180
8134
8095
8198
8052
8219
8072
8209
8130
8127
8202
8063
8266
8032
8282
8042
8246
8126
8175
8207
8075
8272
7984
8325
7969
8317
8006
8263
8069
8175
8149
8115
8211
8101
8217
8113
8150
8168
8056
8243
7993
8313
7967
8320
7986
8261
8046
8186
8150
8106
8224
8029
8269
8022
8267
8049
8190
8115
8123
8196
8062
8220
8055
8206
8109
8148
8199
8061
8277
7989
8343
7960
8344
7983
8290
8048
8221
8144
8145
8209
8082
8228
8080
8201
8127
8119
8193
8046
8263
8012
8298
8013
8254
8081
8176
8162
8082
8242
7998
8311
7984
8321
8015
8274
8067
8182
8143
8097
8191
8073
8200
8099
8160
8168
8078
8249
8012
8323
7963
8330
7976
8295
8037
8217
8128
8133
8219
8052
8251
8031
8253
8059
8185
8125
8113
8195
8060
8254
8050
8229
8093
8164
8172
8081
8259
7995
8320
7945
8332
7964
8303
8031
8221
8102
8126
8171
8065
8208
8074
8189
8133
8124
8203
8052
8276
8001
8311
8012
8283
8070
8210
8149
8113
8231
8027
8284
7994
8307
8015
8273
8080
8199
8160
8108
8196
8071
8207
8094
8164
8158
8079
8246
8006
8321
7951
8338
7964
8301
8020
8225
8112
8139
8188
8067
8242
8050
8244
8068
8189
8137
8114
8217
8066
8273
8050
8249
8078
8194
8161
8100
8249
8018
8319
7968
8348
7976
8301
8015
8228
8109
8149
8179
8093
8215
8083
8185
8128
8118
8199
8047
8277
7994
8302
7976
8281
8022
8219
8121
8130
8204
8038
8272
8000
8296
8025
8274
8087
8194
8161
8115
8202
8070
8208
8090
8169
8143
8080
8228
8006
8304
7951
8338
7954
8313
8004
8242
8098
8154
8170
8075
8224
8053
8233
8068
8174
8135
8104
8216
8050
8270
8029
8260
8062
8215
8160
8130
8229
8030
8298
7973
8335
7975
8308
8019
8227
8093
8152
8169
8093
8211
8086
8189
8119
8115
8199
8039
8278
7983
8318
7970
8298
8023
8256
8124
8170
8215
8092
8268
8032
8288
8023
8248
8071
8166
8133
8096
8203
8054
8214
8069
8181
8141
8117
8225
8020
8303
7965
8340
7951
8329
7999
8256
8090
8172
8163
8099
8216
8062
8228
8085
8158
8143
8099
8231
8038
8277
8018
8270
8039
8219
8113
8134
8210
8039
8283
7985
8323
7972
8302
8026
8234
8098
8158
8166
8092
8203
8079
8184
8115
8126
8200
8045
8289
7991
8335
7973
8326
7991
8251
8080
8168
8173
8085
8234
8031
8268
8033
8245
8094
8182
8157
8104
8213
8052
8229
8059
8210
8131
8131
8211
8039
8293
7972
8344
7948
8325
7990
8260
8058
8187
8144
8101
8200
8077
8230
8101
8173
8152
8090
8222
8025
8284
7995
8294
8021
8246
8106
8178
8200
8086
8265
8002
8309
7989
8295
8019
8228
8093
8160
8164
8091
8208
8087
8205
8135
8144
8196
8054
8271
7987
8327
7957
8327
7977
8266
8038
8182
8138
8093
8215
8039
8243
8040
8233
8086
8165
8167
8094
8240
8058
8272
8070
8228
8119
8148
8192
8048
8276
7979
8331
7950
8327
7977
8272
8051
8202
8148
8131
8206
8080
8196
8086
8162
8154
8089
8238
8022
8295
7984
8304
8001
8259
8068
8181
8161
8099
8243
8018
8292
7997
8286
8024
8222
8089
8154
8173
8095
8230
8072
8199
8107
8152
8192
8069
8271
7994
8338
7964
8345
7983
8299
8041
8219
8136
8132
8208
8066
8238
8052
8228
8094
8151
8165
8079
8234
8030
8249
8028
8233
8089
8167
8177
8090
8269
8002
8328
7967
8332
7981
8270
8046
8202
8126
8119
8184
8074
8207
8104
8183
8172
8114
8251
8040
8321
7995
8324
7982
8276
8041
8199
8137
8114
8218
8031
8269
8012
8280
8033
8220
8091
8143
8174
8079
8224
8061
8212
8094
8169
8182
8085
8270
8007
8331
7955
8350
7970
8308
8023
8221
8116
8135
8181
8066
8211
8052
8200
8090
8140
8168
8071
8239
8018
8270
8015
8251
8077
8196
8168
8115
8258
8028
8329
7986
8335
7995
8289
8052
8215
8146
8165
8226
8114
8228
8090
8158
8136
8075
8222
8009
8297
7974
8326
7963
8285
8025
8218
8110
8127
8199
8045
8248
8017
8270
8039
8217
8101
8140
8174
8078
8229
8051
8222
8082
8172
8158
8092
8243
7999
8328
7963
8349
7963
8319
8012
8235
8100
8150
8178
8082
8211
8072
8210
8105
8144
8178
8079
8258
8030
8300
8014
8266
8045
8209
8135
8114
8217
8026
8285
7978
8315
7989
8288
8042
8205
8122
8136
8187
8083
8203
8082
8175
8152
8117
8234
8031
8311
7977
8345
7978
8315
8007
8235
8098
8150
8190
8072
8250
8036
8256
8052
8201
8096
8123
8183
8074
8239
8037
8231
8062
8180
8148
8114
8249
8033
8326
7976
8356
7973
8322
8014
8246
8084
8164
8164
8097
8216
8084
8208
8107
8136
8176
8063
8260
8008
8292
7987
8280
8028
8235
8115
8147
8207
8056
8267
7996
8306
7995
8280
8043
8202
8109
8111
8184
8077
8207
8080
8182
8143
8121
8215
8026
8298
7970
8341
7961
8336
8018
8280
8096
8177
8186
8108
8238
8058
8256
8063
8200
8113
8121
8180
8057
8248
8029
8241
8050
8215
8134
8134
8214
8045
8298
7986
8339
7968
8318
7998
8256
8076
8176
8161
8097
8205
8084
8200
8111
8151
8184
8067
8250
8001
8312
7988
8312
8012
8245
8087
8161
8183
8071
8246
8016
8288
8007
8272
8059
8211
8122
8123
8187
8069
8220
8080
8205
8142
8140
8218
8052
8298
7972
8340
7949
8325
7974
8263
8053
8181
8148
8115
8214
8057
8233
8072
8201
8117
8128
8198
8062
8261
8018
8263
8033
8226
8108
8152
8196
8049
8272
7987
8320
7968
8325
8010
8265
8082
8195
8160
8108
8204
8084
8199
8105
8146
8178
8061
8248
7995
8318
7981
8324
7991
8259
8060
8176
8160
8103
8243
8045
8286
8024
8267
8059
8197
8122
8117
8197
8068
8232
8067
8208
8122
8153
8196
8054
8277
7985
8343
7957
8357
7992
8293
8049
8203
8125
8108
8191
8073
8230
8084
8193
8124
8112
8184
8038
8254
8003
8280
8015
8243
8082
8168
8169
8083
8253
8004
8311
7984
8316
8003
8257
8073
8187
8158
8109
8202
8093
8205
8109
8164
8179
8078
8256
8007
8323
7966
8331
7974
8294
8042
8206
8132
8120
8218
8054
8264
8047
8263
8071
8191
8133
8112
8199
8062
8238
8048
8212
8102
8162
8186
8078
8257
7996
8331
7956
8335
7972
8295
8030
8216
8118
8133
8181
8084
8214
8085
8193
8144
8130
8219
8059
8273
8001
8297
7996
8269
8065
8199
8145
8101
8234
8017
8289
7993
8310
8008
8264
8076
8172
8134
8101
8193
8072
8204
8097
8163
8169
8087
8248
7998
8325
7972
8356
7981
8322
8032
8229
8123
8147
8201
8068
8245
8043
8244
8072
8186
8133
8113
8210
8054
8253
8042
8236
8072
8173
8149
8084
8243
8007
8321
7960
8346
7981
8319
8038
8238
8123
8155
8181
8090
8210
8086
8194
8134
8128
8217
8049
8281
7990
8311
7980
8278
8027
8218
8126
8122
8213
8049
8280
8013
8304
8022
8266
8078
8188
8139
8099
8205
8063
8205
8076
8169
8152
8094
8232
8014
8306
7952
8342
7956
8315
7999
8234
8093
8164
8179
8087
8226
8060
8245
8085
8186
8138
8099
8209
8038
8257
8002
8235
8036
8193
8127
8114
8229
8032
8294
7977
8346
7995
8329
8033
8248
8129
8177
8181
8086
8203
8079
8192
8126
8133
8205
8045
8290
7993
8326
7965
8304
8004
8240
8101
8163
8187
8075
8251
8030
8290
8035
8263
8085
8181
8141
8096
8205
8062
8220
8072
8189
8137
8122
8218
8038
8308
7963
8344
7961
8327
7994
8264
8069
8174
8160
8109
8217
8073
8234
8090
8176
8138
8098
8218
8034
8267
8001
8274
8032
8229
8109
8144
8200
8066
8286
8000
8329
7987
8315
8027
8237
8087
8157
8150
8090
8202
8087
8195
8114
8138
8201
8054
8272
7985
8323
7956
8330
7997
8266
8078
8191
8175
8105
8238
8052
8283
8046
8257
8094
8183
8153
8106
8216
8059
8239
8058
8202
8113
8141
8207
8051
8289
7979
8341
7953
8327
7983
8273
8049
8186
8136
8119
8193
8077
8212
8096
8183
8159
8105
8234
8036
8293
8000
8304
8013
8252
8092
8175
8167
8077
8247
8003
8311
7994
8311
8031
8245
8089
8165
8155
8084
8192
8072
8195
8106
8137
8185
8065
8263
7992
8323
7954
8335
7973
8282
8047
8208
8144
8120
8211
8049
8234
8035
8228
8082
8173
8152
8105
8240
8047
8238
8028
8210
8084
8151
8187
8082
8276
8005
8343
7974
8348
7988
8290
8041
8203
8124
8129
8197
8083
8206
8089
8180
8159
8104
8225
8033
8307
8010
8335
8011
8278
8052
8200
8152
8111
8231
8026
8280
8000
8295
8028
8234
8089
8162
8168
8096
8235
8083
8216
8095
8157
8171
8066
8252
7986
8318
7958
8345
7973
8312
8025
8217
8123
8140
8193
8070
8229
8054
8227
8086
8153
8160
8082
8225
8027
8267
8024
8250
8082
8186
8156
8099
8241
7996
8318
7967
8330
7980
8296
8037
8211
8121
8139
8192
8092
8216
8091
8177
8146
8096
8218
8023
8290
7978
8329
7976
8295
8037
8219
8123
8129
8204
8046
8273
8027
8288
8048
8244
8093
8165
8176
8100
8240
8079
8238
8094
8175
8151
8085
8234
7995
8313
7954
8341
7959
8321
8011
8237
8101
8157
8177
8083
8223
8072
8224
8097
8168
8177
8086
8252
8029
8282
8019
8267
8048
8212
8138
8121
8223
8025
8290
7980
8324
7978
8286
8033
8211
8102
8143
8181
8090
8208
8092
8189
8146
8118
8221
8031
8301
7981
8340
7964
8311
8012
8254
8105
8161
8188
8083
8246
8031
8265
8037
8218
8093
8138
8159
8082
8229
8053
8234
8074
8192
8148
8112
8232
8026
8311
7964
8355
7976
8331
8002
8260
8091
8170
8164
8100
8214
8079
8208
8098
8165
8170
8070
8232
8015
8288
7995
8279
8029
8224
8113
8148
8200
8048
8271
7995
8313
7995
8285
8024
8216
8108
8137
8187
8093
8208
8082
8186
8142
8131
8218
8045
8305
7985
8338
7955
8332
7995
8258
8082
8186
8179
8108
8245
8059
8262
8051
8212
8086
8135
8159
8067
8240
8046
8254
8057
8211
8117
8123
8200
8037
8287
7975
8332
7958
8321
7991
8254
8066
8179
8155
8105
8206
8078
8208
8104
8157
8174
8085
8245
8012
8303
7983
8304
8006
8247
8087
8163
8173
8076
8250
8007
8297
8004
8290
8041
8222
8117
8141
8194
8091
8221
8079
8204
8134
8147
8205
8050
8281
7979
8332
7952
8336
7978
8275
8053
8204
8157
8132
8224
8065
8241
8066
8205
8107
8132
8175
8068
8252
8033
8272
8038
8233
8096
8155
8187
8070
8278
7991
8328
7966
8331
7994
8272
8063
8197
8145
8114
8198
8088
8200
8103
8161
8170
8076
8246
8008
8307
7971
8309
7981
8266
8062
8193
8151
8102
8230
8032
8277
8014
8278
8053
8217
8121
8141
8193
8086
8243
8075
8224
8121
8156
8188
8067
8273
7994
8336
7956
8348
7974
8293
8043
8227
8137
8129
8197
8069
8216
8065
8199
8111
8131
8185
8065
8267
8029
8293
8029
8259
8081
8178
8166
8095
8254
8012
8323
7982
8305
7980
8267
8050
8190
8146
8124
8206
8091
8208
8099
8168
8164
8090
8250
8015
8314
7968
8334
7970
8288
8033
8207
8126
8124
8211
8054
8264
8029
8262
8048
8194
8103
8116
8185
8058
8222
8043
8218
8082
8167
8170
8093
8266
8006
8342
7966
8349
7965
8303
8016
8209
8095
8141
8191
8092
8223
8092
8208
8118
8130
8191
8056
8266
8012
8297
8010
8271
8056
8205
8138
8114
8226
8020
8292
7986
8313
8003
8278
8062
8202
8133
8122
8199
8080
8203
8091
8167
8160
8091
8239
8016
8312
7969
8348
7968
8318
8013
8234
8112
8147
8186
8066
8241
8038
8255
8066
8206
8124
8122
8198
8062
8243
8046
8248
8082
8202
8160
8115
8246
8026
8321
7964
8348
7969
8317
8024
8247
8103
8156
8174
8097
8213
8088
8193
8113
8132
8193
8055
8267
7999
8309
7983
8288
8032
8226
8120
8137
8212
8058
8292
8018
8313
8010
8274
8064
8202
8134
8124
8209
8075
8208
8070
8175
8149
8115
8239
8032
8315
7968
8341
7953
8322
7995
8248
8085
8167
8173
8076
8223
8050
8240
8064
8181
8116
8111
8205
8062
8267
8031
8254
8053
8209
8140
8123
8216
8025
8289
7964
8330
7965
8319
8021
8247
8081
8164
8170
8096
8205
8078
8193
8115
8143
8200
8058
8273
7994
8317
7983
8311
8001
8243
8094
8153
8187
8060
8252
8013
8288
8020
8262
8064
8185
8129
8115
8203
8080
8227
8079
8197
8138
8118
8212
8031
8288
7965
8338
7953
8331
7996
8266
8072
8193
8168
8118
8228
8073
8241
8083
8191
8130
8105
8207
8053
8271
8027
8274
8040
8219
8109
8144
8195
8040
8273
7986
8328
7976
8315
8017
8246
8078
8169
8164
8107
8205
8090
8196
8120
8137
8191
8053
8259
7989
8316
7969
8322
7999
8270
8080
8182
8167
8093
8235
8028
8273
8028
8254
8072
8185
8140
8109
8208
8068
8233
8068
8211
8124
8135
8204
8046
8288
7980
8344
7959
8343
7989
8276
8052
8200
8143
8117
8198
8070
8215
8087
8192
8142
8116
8222
8048
8284
8010
8297
8019
8244
8082
8162
8179
8074
8251
7991
8301
7970
8298
8012
8252
8084
8177
8164
8104
8213
8093
8212
8118
8164
8193
8071
8255
7984
8313
7957
8330
7981
8289
8052
8202
8144
8123
8226
8054
8253
8040
8245
8088
8195
8173
8127
8219
8052
8231
8037
8207
8088
8142
8174
8067
8270
7982
8327
7958
8345
7996
8313
8059
8222
8142
8133
8189
8082
8213
8089
8185
8140
8105
8216
8035
8285
7990
8308
8004
8269
8065
8194
8155
8100
8238
8028
8289
7996
8303
8024
8259
8090
8189
8179
8125
8232
8084
8204
8095
8149
8168
8065
8252
7998
8322
7960
8339
7966
8288
8020
8215
8111
8137
8191
8055
8235
8051
8244
8081
8174
8150
8100
8225
8054
8264
8036
8244
8090
8176
8158
8092
8247
8001
8317
7961
8334
7968
8294
8035
8221
8132
8156
8195
8107
8238
8109
8195
8148
8104
8208
8032
8292
7989
8320
7987
8290
8032
8209
8132
8125
8212
8043
8271
8009
8285
8023
8233
8088
8175
8171
8104
8226
8074
8217
8091
8172
8163
8093
8240
8010
8322
7960
8352
7963
8322
8014
8238
8105
8155
8182
8083
8224
8062
8226
8086
8173
8165
8096
8227
8029
8273
8021
8255
8058
8187
8137
8100
8230
8032
8315
7979
8328
7975
8288
8024
8217
8112
8148
8179
8092
8218
8089
8186
8146
8126
8227
8045
8296
7989
8336
7976
8313
8022
8239
8108
8155
8200
8061
8254
8021
8274
8033
8245
8100
8179
8184
8109
8245
8073
8226
8070
8168
8128
8090
8218
8007
8305
7962
8344
7947
8314
7996
8253
8085
8166
8168
8094
8216
8075
8229
8095
8173
8168
8094
8234
8031
8287
8010
8276
8033
8221
8125
8142
8221
8047
8282
7987
8315
7984
8298
8045
8239
8113
8157
8186
8093
8193
8082
8179
8138
8132
8217
8043
8303
7981
8335
7960
8325
8000
8246
8080
8163
8173
8087
8240
8043
8267
8047
8224
8096
8147
8168
8079
8235
8060
8246
8073
8212
8147
8132
8226
8040
8301
7974
8338
7954
8329
7998
8262
8076
8182
8165
8103
8207
8079
8220
8104
8167
8170
8082
8240
8016
8286
7986
8285
8024
8233
8101
8150
8192
8070
8268
8002
8307
7994
8287
8036
8219
8107
8153
8188
8102
8232
8087
8202
8140
8129
8210
8043
8293
7975
8339
7955
8341
7998
8273
8071
8180
8154
8102
8228
8048
8260
8064
8236
8101
8144
8172
8071
8237
8037
8249
8046
8212
8116
8142
8208
8048
8291
7988
8345
7969
8342
8003
8270
8077
8192
8156
8119
8206
8091
8211
8098
8142
8157
8074
8245
8024
8304
7995
8317
8015
8267
8084
8175
8165
8079
8240
8017
8301
8004
8281
8038
8214
8102
8135
8183
8081
8210
8073
8198
8119
8141
8199
8047
8276
7980
8341
7956
8345
7980
8279
8040
8187
8134
8116
8205
8063
8234
8062
8214
8114
8164
8207
8096
8274
8043
8273
8033
8236
8095
8155
8178
8064
8263
7992
8329
7979
8335
7993
8267
8056
8194
8148
8112
8204
8090
8207
8108
8171
8175
8090
8246
8016
8303
7971
8319
7982
8272
8061
8195
8150
8112
8235
8037
8265
8012
8274
8049
8213
8112
8135
8185
8080
8220
8061
8214
8109
8148
8184
8069
8267
7993
8333
7956
8345
7976
8285
8034
8221
8125
8140
8198
8085
8231
8075
8203
8111
8131
8190
8063
8263
8023
8293
8023
8253
8079
8181
8169
8105
8261
8017
8317
7974
8314
8001
8266
8051
8185
8138
8110
8187
8077
8201
8099
8169
8168
8087
8242
8012
8309
7967
8334
7980
8291
8038
8214
8137
8131
8214
8056
8264
8032
8269
8055
8213
8122
8135
8206
8075
8241
8052
8217
8083
8162
8163
8083
8251
7997
8323
7962
8350
7975
8311
8024
8229
8116
8148
8188
8089
8222
8081
8205
8121
8137
8200
8063
8278
8024
8316
8022
8275
8058
8203
8151
8121
8241
8034
8297
7988
8315
8002
8268
8051
8182
8123
8113
8195
8082
8201
8092
8171
8158
8087
8247
8020
8320
7971
8343
7966
8296
8005
8218
8093
8138
8183
8061
8235
8033
8246
8058
8196
8116
8125
8199
8063
8243
8039
8240
8078
8189
8154
8105
8250
8021
8324
7964
8347
7976
8323
8032
8257
8131
8185
8207
8122
8231
8089
8184
8097
8104
8185
8062
8286
8012
8313
7998
8294
8052
8232
8118
8112
8184
8024
8257
7995
8298
8014
8280
8069
8199
8136
8124
8210
8090
8232
8105
8189
8156
8113
8231
8031
8315
7964
8334
7956
8316
8010
8263
8111
8175
8192
8119
8261
8060
8223
8042
8142
8080
8064
8146
8016
8224
8027
8260
8066
8238
8165
8134
8232
8038
8341
8021
8356
7965
8284
7965
8198
8046
8122
8142
8081
8203
8079
8198
8129
8145
8208
8072
8290
7999
8311
7976
8289
7999
8227
8082
8134
8177
8049
8246
8009
8290
8011
8263
8064
8188
8139
8120
8192
8061
8223
8090
8206
8145
8118
8213
8024
8302
7964
8343
7965
8337
7996
8255
8060
8171
8163
8113
8228
8067
8241
8091
8198
8151
8139
8235
8067
8285
8027
8250
8013
8198
8096
8127
8197
8048
8295
7994
8327
7967
8306
8022
8270
8146
8259
8291
8217
8283
8126
8198
8096
8096
8157
8013
8238
7969
8302
7948
8299
7982
8232
8041
8151
8154
8094
8248
8030
8272
8028
8250
8085
8202
8174
8130
8232
8081
8249
8087
8219
8146
8127
8188
8016
8270
7962
8332
7934
8305
7958
8252
8056
8203
8172
8154
8257
8141
8305
8152
8236
8196
8143
8250
8048
8277
8004
8273
8012
8226
8072
8119
8146
8057
8257
7995
8314
7994
8363
8098
8335
8177
8245
8231
8158
8250
8105
8205
8113
8144
8199
8077
8293
8005
8340
7958
8325
7969
8263
8028
8170
8131
8094
8205
8026
8228
8019
8221
8054
8148
8120
8068
8181
8026
8217
8043
8215
8129
8168
8200
8042
8238
7942
8284
7902
8285
7921
8212
7982
8141
8067
8065
8150
8035
8163
8058
8147
8117
8083
8210
8038
8302
8009
8326
8043
8313
8142
8269
8260
8211
8376
8148
8427
8116
8419
8128
8345
8169
8218
8193
8118
8226
8084
8209
8108
8151
8177
8056
8246
7976
8307
7932
8325
7961
8279
8020
8202
8106
8108
8170
8025
8211
8028
8224
8076
8175
8153
8092
8219
8041
8251
8022
8209
8060
8150
8146
8065
8239
7975
8306
7941
8317
7963
8267
8027
8195
8097
8109
8167
8065
8184
8074
8148
8107
8078
8193
8017
8287
7986
8309
7980
8260
8014
8183
8116
8104
8223
8034
8286
8020
8312
8050
8247
8079
8156
8148
8088
8196
8070
8209
8097
8162
8165
8073
8245
7994
8302
7922
8287
7890
8220
7937
8161
8043
8090
8141
8037
8207
8058
8249
8125
8199
8196
8134
8281
8089
8341
8098
8320
8121
8230
8163
8106
8247
8029
8339
8018
8378
8037
8352
8102
8301
8191
8203
8243
8151
8266
8120
8210
8180
8150
8251
8049
8314
8003
8349
7996
8328
8046
8246
8129
8141
8199
8051
8249
8001
8253
8012
8200
8058
8116
8125
8057
8181
8035
8193
8036
8121
8106
8047
8211
8002
8329
7992
8378
7971
8332
8025
8278
8141
8207
8209
8130
8246
8089
8247
8119
8185
8181
8099
8259
8047
8300
8022
8282
8050
8231
8129
8130
8197
8005
8245
7942
8271
7940
8248
7979
8160
8045
8078
8109
8026
8143
8044
8163
8132
8103
8203
8034
8300
7981
8347
7971
8306
7972
8204
8019
8098
8125
8052
8221
8023
8278
8089
8301
8170
8216
8212
8110
8255
8074
8263
8107
8259
8207
8211
8337
8163
8415
8081
8457
8062
8407
8049
8297
8109
8196
8172
8110
8209
8074
8193
8096
8150
8157
8076
8229
7999
8268
7963
8249
7971
8179
8031
8093
8137
7998
8208
7949
8254
7954
8248
8001
8195
8089
8131
8173
8081
8209
8078
8188
8135
8147
8231
8069
8315
7999
8359
7975
8344
7999
8283
8079
8198
8168
8114
8229
8056
8251
8044
8198
8066
8100
8117
8018
8164
7971
8168
7966
8147
8048
8077
8140
7980
8212
7918
8280
7912
8306
7985
8256
8067
8206
8184
8172
8292
8195
8344
8235
8280
8269
8156
8308
8059
8330
8012
8347
8059
8316
8136
8219
8201
8120
8286
8050
8325
8027
8289
8028
8192
8073
8104
8133
8049
8200
8064
8184
8088
8114
8172
8025
8250
7950
8319
7962
8367
8023
8348
8129
8280
8215
8182
8251
8088
8242
8064
8222
8132
8186
8224
8105
8282
8059
8310
8065
8254
8098
8141
8137
8013
8212
7940
8261
7919
8291
7956
8233
8023
8152
8096
8082
8171
8063
8175
8080
8163
8170
8065
8203
7956
8244
7899
8211
7878
8171
7959
8131
8105
8100
8238
8041
8270
8019
8270
8039
8211
8120
8171
8230
8168
8371
8215
8367
8257
8306
8329
8194
8381
8103
8433
8027
8366
7959
8273
8033
8247
8188
8210
8252
8115
8242
8069
8179
8076
8094
8138
8029
8230
8000
8273
8022
8271
8108
8239
8204
8133
8280
8039
8331
7984
8311
7967
8220
7992
8115
8059
8050
8110
8006
8102
7992
8047
8048
8002
8148
7926
8218
7908
8284
7932
8260
8000
8211
8146
8199
8287
8143
8326
8095
8344
8137
8290
8184
8189
8224
8090
8247
8051
8226
8078
8173
8171
8102
8252
8007
8306
7924
8305
7900
8226
7953
8183
8057
8091
8132
8073
8245
8110
8214
8115
8155
8233
8119
8327
8069
8352
8019
8279
8067
8238
8171
8179
8291
8123
8367
8050
8340
7985
8214
7988
8143
8075
8070
8142
8048
8178
8065
8133
8088
8045
8199
8014
8322
8000
8357
7972
8323
8011
8246
8107
8167
8195
8063
8210
8028
8265
8108
8279
8211
8220
8292
8163
8350
8116
8303
8097
8182
8116
8095
8220
8016
8322
7984
8363
7974
8294
7941
8137
7994
8082
8093
8028
8151
8044
8156
8081
8097
8152
8013
8199
7935
8217
7889
8203
7949
8178
8073
8134
8222
8138
8390
8137
8415
8120
8381
8181
8314
8254
8260
8323
8181
8308
8154
8245
8208
8159
8236
8032
8298
7946
8324
7947
8319
7977
8242
8073
8155
8103
7993
8098
7938
8094
7911
8021
7953
7954
8032
7906
8109
7904
8142
7959
8147
8068
8099
8211
8078
8371
8118
8496
8157
8500
8229
8484
8310
8368
8330
8251
8342
8191
8303
8222
8226
8265
8122
8303
7974
8258
7886
8197
7898
8147
7972
8087
8102
8004
8174
7967
8245
8000
8265
8092
8256
8229
8219
8299
8159
8330
8161
8245
8165
8147
8209
8034
8293
7988
8336
7925
8274
7908
8195
7973
8105
8071
8067
8208
8079
8264
8136
8273
8200
8180
8248
8081
8292
8025
8299
8063
8267
8141
8194
8223
8098
8308
8036
8349
7975
8296
7982
8219
8048
8139
8101
8054
8126
8007
8096
7992
8034
8093
7994
8196
7929
8247
7906
8263
7934
8212
8005
8171
8182
8196
8375
8242
8503
8266
8428
8228
8327
8226
8158
8239
8052
8197
7995
8101
7962
7972
7997
7866
8092
7795
8127
7769
8138
7811
8158
7964
8157
8123
8185
8327
8244
8416
8319
8424
8397
8366
8403
8196
8391
8093
8357
8047
8273
8092
8183
8156
8063
8217
8007
8340
8030
8343
8049
8295
8115
8210
8184
8120
8208
8074
8173
8060
8098
8136
8048
8245
7991
8322
7957
8329
7970
8296
8035
8208
8148
8179
8289
8151
8316
8078
8248
8058
8151
8105
8055
8137
7982
8180
7978
8164
8029
8121
8134
8058
8246
7988
8305
7932
8318
7962
8291
8019
8196
8089
8102
8157
8061
8172
8057
8145
8096
8065
8172
8003
8250
7969
8300
7989
8281
8099
8269
8190
8139
8230
8015
8241
7944
8226
7947
8176
8018
8108
8099
8098
8234
8090
8208
8064
8125
8147
8068
8232
8000
8329
7976
8363
7980
8322
8032
8257
8166
8219
8268
8151
8332
8135
8294
8114
8184
8135
8078
8193
8025
8261
8042
8281
8159
8289
8236
8178
8308
8041
8288
7898
8233
7875
8182
7915
8070
7939
7947
7982
7926
8059
7979
8129
8163
8209
8382
8271
8567
8310
8603
8239
8495
8196
8336
8187
8175
8228
8045
8229
7937
8184
7933
8145
8004
8110
8126
8101
8236
8085
8231
8090
8184
8190
8161
8345
8141
8430
8071
8461
8061
8404
8079
8308
8144
8191
8194
8120
8252
8083
8250
8116
8199
8197
8119
8228
8017
8244
7978
8200
7962
8100
7997
7987
8107
7947
8224
7926
8279
7954
8296
8039
8262
8164
8200
8198
8097
8205
8057
8121
8036
8000
8086
7914
8144
7857
8173
7830
8181
7909
8175
8077
8173
8216
8143
8367
8179
8427
8172
8364
8204
8281
8246
8149
8268
8076
8224
8046
8155
8103
8060
8176
7988
8279
7981
8385
7997
8361
8017
8258
8070
8173
8167
8130
8276
8142
8283
8134
8184
8170
8102
8238
8039
8286
7991
8267
8028
8249
8137
8157
8191
8030
8258
7961
8275
7924
8230
7994
8214
8087
8124
8146
8107
8260
8146
8285
8231
8237
8288
8093
8310
7987
8342
7979
8334
7979
8227
8018
8118
8102
8014
8158
7982
8198
8001
8200
8074
8136
8146
8080
8245
8076
8307
8132
8287
8224
8239
8309
8134
8369
8024
8373
7967
8326
7979
8238
8036
8143
8083
8034
8097
7960
8079
7992
8070
8074
8024
8186
7983
8264
7969
8303
8040
8280
8136
8210
8222
8128
8309
8051
8303
7944
8157
7882
8067
7953
8011
8042
7951
8068
7957
8083
7998
8018
8101
7985
8270
8047
8445
8111
8524
8214
8539
8301
8408
8334
8309
8424
8249
8375
8134
8300
8186
8236
8256
8149
8294
8085
8310
8108
8295
8144
8172
8201
8081
8266
7964
8299
7923
8267
7907
8163
7926
8055
8036
8043
8142
8055
8180
8088
8142
8148
8059
8186
7961
8251
7967
8341
8041
8315
8114
8252
8203
8111
8220
8014
8241
7943
8184
7964
8167
8060
8131
8239
8208
8353
8166
8267
8173
8251
8316
8226
8436
8162
8474
8056
8414
8022
8320
8033
8202
8099
8099
8165
8027
8188
8019
8158
8048
8083
8105
8007
8159
7943
8175
7913
8106
7913
8000
7994
7961
8159
7923
8218
7888
8268
7962
8247
8037
8238
8233
8251
8333
8242
8305
8113
8106
8051
7977
8085
7860
8123
7823
8183
7844
8165
7931
8139
8079
8130
8299
8207
8468
8267
8506
8280
8410
8236
8219
8240
8133
8300
8152
8350
8226
8309
8324
8229
8379
8125
8442
8046
8396
7973
8297
7995
8194
8057
8081
8114
8006
8128
7986
8121
8059
8093
8119
8037
8258
8024
8248
7937
8176
7945
8095
8045
7988
8122
7917
8196
7903
8286
7998
8298
8083
8300
8263
8296
8344
8231
8351
8240
8304
8252
8193
8328
8114
8423
8095
8456
8070
8396
8092
8271
8132
8145
8177
8038
8210
7998
8238
8037
8190
8092
8101
8142
8039
8213
8024
8194
8029
8124
8079
8004
8131
7899
8180
7823
8150
7757
8071
7777
8023
7916
8012
8050
8002
8141
8044
8191
8117
8190
8291
8203
8406
8119
8394
8097
8399
8140
8304
8182
8161
8208
8044
8284
7994
8292
8001
8328
8154
8335
8255
8270
8309
8204
8336
8206
8303
8271
8248
8347
8110
8355
7992
8353
7965
8329
8002
8252
8127
8209
8191
8065
8195
8006
8190
7990
8127
8065
8075
8124
8005
8173
7965
8148
7941
8080
8015
8017
8139
7952
8225
7888
8232
7848
8185
7868
8096
7940
8016
8039
8019
8148
8062
8219
8179
8230
8310
8239
8490
8322
8652
8312
8564
8257
8457
8261
8264
8240
8090
8259
8007
8290
7993
8251
8019
8130
8032
8031
8114
8001
8106
7956
8065
7990
7977
8069
7900
8172
7865
8240
7856
8259
7971
8301
8154
8298
8270
8217
8341
8176
8332
8116
8208
8123
8117
8176
8020
8208
7997
8263
8098
8327
8251
8310
8385
8206
8407
8081
8414
8043
8381
8051
8289
8074
8158
8159
8128
8247
8114
8223
8119
8155
8180
8057
8232
7962
8283
7954
8315
7984
8244
8056
8148
8135
8052
8206
7988
8199
7927
8121
7891
7994
7899
7849
7899
7754
7892
7747
7902
7849
7916
8032
7933
8256
8108
8554
8177
8594
8321
8655
8414
8552
8478
8423
8437
8254
8392
8236
8314
8246
8240
8320
8133
8319
8051
8294
8009
8202
8034
8126
8144
8042
8228
7962
8268
7974
8339
8052
8314
8121
8224
8174
8124
8202
8055
8137
8029
8061
8079
7972
8170
7923
8250
7916
8296
7953
8251
8050
8237
8169
8136
8244
8038
8211
7947
8123
7916
8004
7955
7956
8065
7947
8126
7984
8193
8136
8223
8297
8232
8459
8166
8492
8089
8463
8074
8372
8106
8253
8179
8194
8256
8158
8296
8141
8227
8162
8129
8202
8020
8220
7920
8168
7860
8098
7887
8009
7997
7965
8125
7901
8200
7903
8196
7899
8159
8044
8192
8174
8131
8247
8128
8262
8142
8187
8219
8175
8373
8123
8488
8217
8635
8277
8558
8214
8336
8200
8195
8260
8134
8312
8078
8248
8022
8071
7982
7934
8021
7871
8070
7879
8067
7925
8061
8091
8015
8171
7937
8316
8033
8482
8130
8421
8125
8264
8141
8171
8213
8129
8260
8173
8317
8231
8199
8303
8107
8301
7966
8254
7921
8215
7981
8146
8081
8090
8231
8085
8343
8060
8360
8108
8351
8157
8241
8216
8143
8237
8083
8206
8080
8146
8120
8036
8180
7948
8257
7933
8320
7926
8264
7964
8167
8022
8085
8140
8047
8220
8046
8242
8125
8251
8222
8197
8314
8143
8389
8185
8392
8175
8278
8198
8144
8246
8019
8287
7946
8309
7944
8265
7972
8169
8029
8079
8099
8010
8102
7996
8104
8054
8037
8118
7964
8201
7907
8242
7911
8253
7978
8218
8134
8193
8267
8158
8373
8094
8322
8027
8238
8033
8094
8057
8003
8099
7975
8141
8030
8158
8150
8139
8281
8113
8434
8126
8513
8128
8494
8128
8300
8079
8117
8091
7994
8098
7957
8098
7965
8054
8062
8049
8208
8086
8362
8125
8409
8185
8380
8331
8339
8372
8154
8368
8036
8365
8026
8346
8056
8256
8109
8144
8136
8061
8158
8039
8142
8088
8080
8147
7970
8187
7882
8229
7872
8241
7959
8197
7993
8062
8052
7926
8082
7906
8173
7970
8188
8043
8142
8151
8152
8328
8192
8394
8260
8422
8335
8304
8401
8201
8426
8050
8365
7946
8310
7965
8223
8017
8128
8101
8047
8161
8056
8237
8121
8227
8218
8161
8293
8089
8333
8042
8320
8038
8243
8103
8164
8205
8070
8265
7998
8317
7972
8284
8036
8280
8158
8220
8249
8165
8285
8148
8239
8158
8149
8198
8041
8259
7965
8295
7926
8298
7946
8239
8032
8166
8128
8058
8180
7992
8208
8015
8183
8053
8122
8119
8049
8171
8004
8207
8033
8210
8112
8154
8206
8052
8264
7936
8252
7864
8199
7842
8105
7876
8007
7975
7971
8075
7978
8100
8012
8098
8116
8129
8340
8170
8439
8126
8436
8131
8350
8143
8274
8306
8247
8419
8181
8424
8112
8390
8115
8307
8168
8223
8258
8168
8293
8131
8235
8124
8137
8154
8014
8210
7938
8275
7884
8258
7892
8196
7936
8093
8021
8040
8174
8069
8267
8077
8235
8085
8139
8165
8089
8272
8088
8337
8087
8247
8088
8151
8156
8046
8232
7960
8315
7990
8402
8101
8414
8183
8326
8242
8235
8313
8194
8297
8150
8198
8155
8065
8175
7964
8222
7887
8213
7895
8197
7948
8062
7953
7919
8030
7888
8162
7946
8215
7947
8144
8065
8138
8178
8129
8328
8226
8411
8338
8389
8369
8258
8430
8159
8447
8049
8403
8001
8344
8075
8294
8199
8227
8260
8146
8297
8108
8240
8102
8149
8164
8067
8236
8015
8263
8006
8219
8006
8129
8076
7997
8121
7883
8156
7810
8134
7808
8093
7863
8025
7956
7992
8084
8032
8210
8135
8210
8181
8166
8335
8128
8392
8063
8429
8069
8396
8112
8314
8220
8254
8316
8169
8335
8091
8343
8113
8299
8173
8210
8225
8120
8257
8057
8201
8044
8143
8125
8061
8200
7960
8252
7896
8248
7832
8167
7865
8084
7945
8009
8032
7963
8080
7961
8100
8032
8145
8251
8197
8397
8175
8448
8182
8457
8193
8341
8248
8244
8306
8108
8344
8030
8369
8062
8358
8104
8262
8173
8172
8211
8099
8215
8080
8165
8123
8081
8192
7998
8259
7928
8284
7903
8257
7962
8205
8036
8110
8144
8046
8206
8011
8219
8021
8188
8101
8160
8215
8115
8271
8065
8257
8071
8170
8087
8034
8143
7933
8219
7906
8294
7934
8279
7947
8194
8044
8145
8180
8177
8313
8173
8290
8146
8145
8154
8036
8225
8003
8300
7996
8340
8100
8311
8195
8255
8300
8137
8311
8034
8308
7970
8197
7929
8045
7946
7961
8025
7951
8087
7983
8130
8132
8193
8381
8278
8532
8186
8518
8110
8459
8113
8367
8151
8236
8197
8122
8229
8042
8202
8009
8129
8029
8025
8081
8007
8205
7994
8202
7986
8149
8022
8031
8109
7968
8239
7965
8360
8024
8385
8053
8331
8168
8266
8235
8172
8259
8134
8282
8207
8258
8303
8206
8409
8157
8436
8083
8389
8038
8258
8070
8162
8142
8026
8165
7908
8126
7831
8061
7866
8012
7931
7962
8050
7960
8099
7969
8107
8064
8147
8294
8201
8465
8202
8563
8142
8503
8128
8403
8180
8329
8270
8231
8313
8175
8347
8179
8310
8195
8175
8204
8048
8232
7967
8186
7928
8106
7944
8003
8023
7917
8125
7858
8186
7844
8179
7906
8213
8061
8201
8197
8196
8294
8169
8291
8180
8197
8193
8073
8230
7984
8322
7996
8344
7993
8274
8066
8218
8185
8151
8279
8079
8298
8028
8270
8072
8206
8129
8133
8212
8074
8216
8030
8175
8062
8117
8160
8054
8264
7985
8323
7945
8338
7971
8309
8053
8237
8154
8165
8228
8106
8255
8104
8221
8144
8144
8212
8061
8270
7998
8249
7961
8186
7993
8097
8063
7981
8124
7871
8138
7800
8127
7865
8118
7927
8071
8063
8046
8144
8048
8161
8072
8149
8185
8138
8331
8109
8445
8088
8460
8128
8485
8227
8408
8308
8300
8352
8188
8368
8113
8312
8125
8275
8208
8197
8283
8127
8297
8070
8247
8100
8166
8134
8035
8221
7985
8302
7927
8293
7912
8233
7995
8220
8136
8175
8219
8149
8275
8114
8218
8131
8113
8185
8041
8256
7966
8261
7947
8235
8037
8225
8180
8158
8246
8057
8299
8015
8327
8033
8269
8062
8170
8100
8054
8117
7991
8101
7997
8068
8067
8020
8181
7958
8232
7892
8286
7944
8337
8047
8265
8141
8178
8182
8039
8201
8033
8285
8162
8340
8287
8213
8283
8118
8326
8099
8330
8163
8283
8237
8199
8325
8102
8369
8024
8380
7998
8316
8014
8225
8103
8173
8192
8078
8166
8037
8134
8089
8101
8177
8015
8229
7956
8283
7957
8286
8045
8269
8149
8174
8223
8063
8264
8009
8278
7998
8241
8043
8157
8109
8071
8154
8033
8181
8049
8151
8108
8059
8176
7969
8249
7917
8292
7906
8251
7932
8174
7995
8085
8100
8043
8167
8015
8204
8058
8141
8092
8083
8219
8089
8333
8114
8373
8144
8285
8197
8203
8262
8087
8315
7999
8320
7949
8273
7963
8158
8000
8070
8073
8012
8119
8028
8164
8123
8158
8254
8136
8370
8088
8420
8059
8407
8115
8337
8153
8181
8166
8044
8211
7984
8229
8003
8249
8085
8214
8183
8127
8237
8116
8324
8178
8266
8184
8161
8228
8029
8283
7983
8374
7995
8390
8062
8328
8109
8223
8205
8162
8261
8138
8284
8129
8234
8209
8152
8247
8049
8277
8005
8270
8016
8215
8092
8138
8179
8040
8237
7942
8255
7926
8244
7954
8172
8025
8094
8094
8031
8133
8018
8107
8042
8074
8142
8011
8218
7940
8285
7935
8304
7963
8230
7992
8103
8072
8012
8151
7961
8181
7974
8164
8019
8111
8091
8072
8254
8162
8411
8296
8487
8395
8393
8399
8234
8436
8106
8446
8050
8396
8037
8343
8122
8265
8213
8191
8234
8093
8208
8067
8107
8053
7995
8092
7923
8164
7889
8165
7857
8118
7975
8070
8045
7983
8188
7991
8259
7939
8238
7947
8131
7984
8082
8132
8122
8251
8087
8202
8120
8200
8291
8226
8442
8196
8574
8278
8648
8264
8533
8238
8395
8300
8266
8344
8176
8341
8104
8273
8103
8187
8173
8104
8217
8037
8226
8004
8188
8037
8110
8118
8003
8181
7910
8226
7882
8250
7907
8212
7974
8129
8031
8028
8090
8026
8168
8066
8128
8100
8059
8176
7988
8253
7969
8315
7994
8281
8051
8199
8129
8092
8196
8001
8242
7965
8253
8001
8219
8072
8138
8133
8069
8178
8056
8201
8100
8160
8168
8091
8262
8028
8365
7986
8365
7978
8309
8016
8220
8115
8131
8167
8025
8156
7962
8112
8012
8093
8101
8042
8177
7998
8235
8022
8257
8107
8243
8231
8198
8362
8135
8443
8105
8441
8064
8345
8052
8207
8087
8081
8099
8001
8116
8015
8102
8074
8043
8185
8009
8286
7975
8348
8037
8388
8148
8320
8169
8147
8188
7986
8173
7893
8119
7896
8114
7996
8083
8149
8130
8299
8168
8358
8253
8338
8339
8296
8479
8239
8502
8126
8471
8052
8390
8061
8257
8103
8162
8176
8059
8177
8018
8145
8017
8077
8094
8045
8242
8053
8325
8068
8343
8142
8301
8223
8180
8269
8077
8336
8017
8356
8009
8308
8049
8227
8118
8129
8166
8054
8150
8038
8123
8084
8051
8157
7958
8208
7905
8263
7904
8254
7974
8225
8095
8134
8142
7981
8128
7893
8100
7881
8053
7944
7983
7996
7906
8067
7938
8195
8119
8306
8304
8312
8451
8242
8510
8143
8483
8076
8441
8149
8389
8213
8289
8284
8199
8286
8119
8258
8144
8190
8197
8101
8262
8014
8267
7952
8217
7947
8135
8000
8005
8046
7867
8069
7793
8097
7802
8100
7902
8106
8038
8073
8147
8118
8304
8211
8351
8328
8328
8441
8289
8555
8235
8573
8175
8480
8105
8318
8121
8211
8207
8133
8261
8060
8257
8033
8189
8069
8102
8125
8035
8186
8000
8199
8011
8170
8087
8097
8189
8023
8289
7970
8310
7923
8282
7966
8228
8050
8162
8142
8082
8164
8019
8110
7991
8041
8069
7981
8147
7931
8237
7928
8244
7956
8215
8093
8176
8222
8176
8391
8133
8414
8124
8379
8104
8259
8134
8148
8199
8105
8241
8094
8215
8148
8146
8204
8031
8248
7938
8294
7920
8286
7916
8191
7961
8091
8042
8018
8135
7991
8179
8015
8172
8105
8148
8210
8097
8280
8072
8313
8082
8235
8100
8126
8155
8056
8284
7982
8313
7964
8321
7986
8271
8090
8231
8227
8230
8316
8171
8282
8199
8297
8345
8268
8419
8136
8393
8053
8375
8038
8280
8052
8143
8099
8016
8156
7957
8228
7974
8206
7981
8143
8066
8100
8173
8096
8263
8117
8255
8167
8198
8219
8073
8320
8027
8367
7996
8389
8013
8320
8050
8190
8102
8105
8178
8039
8182
8024
8137
8061
8094
8146
8029
8234
8008
8279
8037
8263
8103
8168
8147
8025
8189
7926
8253
7948
8298
7941
8176
7966
8089
8065
8080
8186
8102
8254
8181
8265
8275
8186
8361
8161
8501
8170
8528
8150
8381
8081
8184
8085
8038
8137
7961
8171
7946
8166
7980
8126
8071
8116
8234
8130
8311
8142
8330
8227
8266
8239
8106
8286
8029
8362
7983
8379
8014
8348
8084
8266
8153
8160
8197
8090
8218
8069
8168
8087
8073
8116
7966
8146
7894
8151
7886
8144
7946
8096
8080
8063
8217
8029
8353
8060
8378
8055
8321
8090
8213
8169
8142
8208
8081
8195
8066
8133
8127
8049
8194
7980
8308
7979
8340
7971
8314
8019
8232
8130
8167
8233
8108
8293
8092
8299
8091
8223
8154
8176
8275
8136
8321
8117
8315
8149
8222
8182
8107
8240
7997
8302
7948
8326
7946
8285
7998
8197
8065
8120
8144
8035
8138
8010
8129
8060
8052
8124
8004
8233
7984
8280
7954
8240
8015
8207
8136
8121
8204
8023
8265
7999
8296
7979
8216
8005
8108
8060
8058
8159
8073
8225
8131
8253
8261
8229
8374
8175
8488
8145
8515
8088
8404
8063
8284
8131
8186
8192
8078
8232
8052
8243
8054
8156
8098
8089
8182
8035
8258
8051
8293
8141
8279
8203
8161
8257
8040
8305
7956
8304
7942
8278
7981
8204
8068
8124
8123
8053
8151
8031
8124
8061
8080
8161
8039
8281
8010
8335
7995
8313
8021
8253
8119
8175
8226
8113
8300
8041
8311
8027
8262
8068
8181
8133
8101
8174
8051
8206
8066
8176
8132
8114
8219
8024
8303
7972
8335
7946
8314
7975
8245
8058
8175
8161
8086
8195
8028
8167
8005
8101
8056
8036
8136
7993
8228
7980
8228
8006
8206
8130
8166
8252
8133
8387
8093
8427
8070
8380
8072
8307
8179
8251
8253
8188
8281
8123
8231
8166
8178
8217
8078
8296
8005
8342
7983
8328
8005
8259
8086
8171
8162
8081
8237
8024
8270
8021
8240
8057
8166
8123
8087
8195
8046
8205
8043
8175
8065
8031
8092
7911
8145
7833
8209
7845
8203
7879
8171
7969
8125
8087
8114
8298
8252
8431
8296
8378
8331
8280
8343
8132
8335
8037
8295
8035
8271
8140
8208
8236
8142
8323
8035
8327
7966
8268
7965
8172
7999
8075
8072
8025
8128
8015
8127
8076
8147
8207
8112
8341
8078
8415
8060
8426
8065
8343
8102
8209
8148
8112
8241
8097
8329
8102
8302
8117
8207
8167
8112
8233
8062
8247
8055
8231
8129
8165
8193
8045
8246
7957
8297
7923
8292
7940
8241
8015
8173
8104
8086
8168
8066
8222
8110
8213
8180
8128
8231
8041
8286
7994
8297
7993
8251
8041
8164
8132
8069
8207
7990
8274
7986
8293
8017
8234
8075
8160
8141
8085
8168
8059
8179
8082
8140
8168
8060
8238
7978
8310
7941
8325
7975
8307
8067
8245
8139
8142
8197
8056
8230
8026
8184
8038
8105
8078
8038
8160
8007
8222
8003
8204
8064
8176
8201
8146
8347
8112
8438
8075
8434
8061
8340
8045
8202
8089
8096
8157
8052
8159
8049
8142
8107
8081
8200
8028
8319
8056
8392
8062
8358
8120
8271
8179
8153
8237
8053
8305
8046
8350
8103
8323
8155
8214
8205
8133
8248
8098
8231
8110
8189
8178
8105
8258
8006
8315
7954
8330
7943
8282
7992
8205
8082
8129
8159
8055
8198
8021
8163
8038
8109
8107
8060
8196
8009
8254
7998
8225
8031
8171
8149
8124
8263
8064
8365
8025
8375
8006
8302
8034
8209
8094
8137
8189
8099
8227
8091
8182
8150
8126
8226
8044
8298
7984
8330
7983
8315
8024
8233
8109
8143
8195
8052
8249
8012
8260
8010
8206
8069
8135
8123
8062
8180
8038
8211
8078
8186
8159
8120
8243
8019
8318
7965
8355
7969
8338
8026
8265
8107
8164
8170
8103
8221
8070
8221
8090
8150
8157
8068
8212
7999
8256
7985
8273
8050
8225
8132
8136
8209
8041
8296
8008
8349
8028
8348
8089
8296
8173
8196
8224
8135
8262
8129
8233
8173
8153
8229
8047
8290
7975
8317
7949
8307
7996
8256
8087
8170
8176
8096
8235
8022
8252
8032
8224
8092
8143
8154
8063
8184
8011
8199
8018
8159
8094
8098
8193
8023
8282
7968
8348
7964
8338
8019
8316
8132
8230
8193
8139
8231
8109
8251
8130
8192
8187
8095
8245
8026
8296
7988
8280
8007
8220
8087
8159
8190
8090
8280
8021
8311
7995
8292
8034
8227
8115
8158
8169
8076
8183
8063
8181
8103
8112
8189
8028
8254
7946
8303
7935
8310
7966
8257
8041
8179
8153
8125
8239
8094
8307
8111
8277
8138
8177
8207
8103
8267
8065
8281
8063
8229
8122
8156
8198
8055
8276
7974
8328
7955
8319
7983
8257
8044
8174
8124
8098
8186
8070
8201
8122
8198
8198
8105
8248
8009
8291
7972
8309
8011
8283
8100
8197
8167
8092
8236
8010
8270
7994
8273
8034
8219
8109
8140
8170
8075
8200
8054
8189
8095
8136
8176
8043
8250
7968
8318
7943
8337
7983
8284
8043
8218
8147
8142
8227
8087
8265
8083
8237
8125
8166
8198
8091
8267
8050
8302
8059
8263
8109
8170
8175
8076
8262
8003
8328
7978
8323
7992
8283
8057
8203
8142
8127
8198
8083
8205
8101
8171
8173
8104
8261
8029
8316
7976
8319
7973
8274
8043
8201
8133
8112
8225
8044
8271
8025
8270
8049
8213
8114
8137
8186
8078
8240
8067
8219
8112
8159
8175
8063
8265
8001
8333
7954
8350
7969
8305
8030
8227
8125
8149
8200
8085
8226
8067
8199
8102
8130
8179
8051
8250
8016
8288
8017
8258
8076
8190
8156
8099
8240
8021
8316
7986
8321
7996
8283
8053
8205
8139
8125
8201
8095
8215
8104
8182
8169
8095
8247
8025
8318
7973
8331
7966
8289
8022
8218
8113
8134
8200
8051
8250
8024
8253
8045
8198
8111
8137
8193
8075
8253
8071
8241
8088
8177
8159
8099
8262
8025
8341
7981
8363
7980
8321
8029
8242
8117
8167
8195
8105
8229
8094
8213
8128
8155
8191
8065
8263
8010
8295
8001
8274
8042
8213
8133
8126
8221
8039
8280
7994
8314
8001
8277
8050
8200
8136
8123
8199
8081
8208
8087
8179
8155
8110
8228
8016
8308
7970
8342
7964
8327
8014
8247
8105
8161
8184
8081
8246
8049
8265
8079
8214
8132
8142
8207
8070
8257
8044
8244
8069
8199
8145
8112
8229
8016
8312
7972
8357
7983
8338
8032
8250
8091
8157
8168
8097
8214
8093
8213
8127
8153
8194
8063
8265
7997
8301
7974
8287
8029
8235
8114
8148
8204
8057
8274
8009
8300
8017
8281
8070
8204
8130
8118
8202
8082
8222
8090
8203
8153
8128
8227
8025
8301
7971
8350
7969
8335
8007
8263
8089
8172
8162
8086
8213
8043
8241
8059
8184
8118
8112
8198
8053
8253
8025
8254
8049
8214
8131
8134
8211
8038
8281
7968
8319
7959
8320
8020
8248
8070
8162
8153
8076
8173
8061
8176
8095
8120
8184
8058
8278
8003
8336
8009
8349
8046
8296
8137
8222
8234
8143
8306
8082
8337
8067
8312
8108
8229
8171
8142
8236
8094
8251
8100
8221
8159
8150
8226
8038
8280
7965
8338
7947
8321
7957
8230
8010
8145
8119
8069
8186
8054
8210
8062
8166
8113
8096
8182
8024
8257
8000
8260
8016
8206
8078
8122
8174
8046
8274
7981
8310
7966
8303
8014
8265
8106
8191
8170
8116
8215
8104
8221
8146
8178
8218
8098
8299
8020
8346
8005
8366
8043
8320
8123
8232
8190
8117
8236
8038
8278
8045
8272
8081
8195
8136
8113
8207
8063
8229
8058
8212
8115
8148
8196
8051
8282
7982
8340
7952
8329
7960
8261
8031
8184
8117
8095
8181
8066
8208
8075
8180
8126
8110
8213
8046
8272
7986
8261
7998
8235
8067
8162
8157
8077
8244
8004
8309
7977
8301
8004
8238
8077
8174
8153
8106
8195
8078
8207
8113
8159
8185
8067
8253
7996
8327
7965
8336
7976
8285
8042
8204
8127
8115
8212
8052
8260
8054
8263
8089
8199
8156
8122
8234
8061
8253
8035
8209
8074
8151
8173
8075
8259
7985
8307
7937
8310
7951
8265
8016
8193
8118
8142
8203
8104
8252
8118
8216
8175
8143
8238
8062
8306
8024
8331
8029
8305
8096
8225
8172
8127
8246
8029
8279
7988
8286
8009
8258
8084
8181
8168
8108
8204
8074
8209
8114
8179
8183
8086
8253
8012
8345
7972
8361
7992
8337
8052
8252
8136
8146
8202
8069
8228
8044
8230
8079
8178
8143
8095
8221
8047
8263
8036
8241
8072
8179
8150
8091
8245
8009
8318
7972
8334
7976
8295
8029
8206
8103
8136
8170
8079
8203
8085
8177
8124
8098
8206
8026
8289
7981
8308
7974
8281
8037
8223
8127
8140
8211
8048
8282
8030
8307
8051
8278
8106
8187
8175
8105
8233
8082
8227
8094
8181
8158
8094
8232
8001
8304
7948
8340
7957
8315
8005
8237
8103
8163
8189
8120
8250
8092
8259
8124
8211
8197
8130
8270
8064
8288
8030
8274
8063
8213
8139
8122
8237
8026
8291
7975
8322
7973
8298
8037
8229
8106
8151
8180
8098
8220
8095
8183
8144
8110
8208
8028
8288
7976
8326
7973
8310
8010
8228
8091
8140
8172
8047
8231
8006
8271
8029
8224
8080
8165
8158
8098
8226
8058
8226
8075
8198
8161
8136
8242
8034
8318
7976
8350
7960
8324
7996
8240
8068
8157
8156
8084
8205
8062
8192
8088
8169
8169
8103
8267
8060
8306
8017
8286
8057
8244
8130
8154
8211
8051
8279
7989
8311
7981
8293
8031
8230
8102
8155
8184
8097
8222
8094
8193
8140
8127
8208
8037
8284
7977
8330
7958
8327
7997
8258
8090
8184
8179
8109
8253
8051
8264
8034
8208
8081
8145
8153
8085
8220
8034
8223
8037
8186
8118
8114
8205
8047
8303
7989
8359
7984
8373
8053
8330
8133
8221
8178
8133
8233
8110
8252
8134
8200
8195
8107
8266
8034
8303
7998
8310
8024
8253
8099
8166
8192
8081
8264
8014
8307
7993
8285
8015
8206
8089
8130
8168
8085
8204
8072
8201
8144
8162
8222
8047
8271
7967
8325
7948
8331
7982
8273
8048
8185
8140
8097
8208
8042
8233
8042
8206
8091
8146
8179
8084
8248
8040
8251
8043
8223
8105
8142
8187
8038
8264
7975
8318
7938
8301
7972
8253
8045
8174
8128
8106
8201
8093
8234
8115
8188
8198
8120
8278
8042
8321
7999
8333
8016
8274
8087
8200
8169
8105
8238
8019
8285
8004
8282
8045
8228
8120
8167
8200
8104
8238
8080
8213
8127
8158
8201
8066
8285
7999
8347
7957
8344
7984
8296
8049
8206
8132
8125
8209
8076
8232
8060
8211
8112
8147
8185
8070
8242
8021
8278
8032
8239
8092
8166
8173
8081
8260
7997
8326
7979
8336
8011
8296
8072
8221
8164
8127
8201
8081
8182
8082
8144
8148
8077
8230
8011
8310
7974
8317
7977
8273
8041
8195
8131
8118
8237
8051
8282
8034
8280
8053
8221
8118
8149
8198
8095
8242
8065
8215
8094
8161
8176
8080
8260
7998
8334
7961
8350
7980
8325
8043
8243
8141
8171
8218
8097
8218
8066
8195
8100
8120
8175
8063
8255
8012
8286
8021
8267
8086
8202
8164
8111
8255
8025
8325
7998
8335
8018
8297
8065
8214
8146
8129
8207
8093
8218
8106
8174
8162
8088
8234
8021
8318
7978
8333
7973
8299
8028
8210
8112
8123
8197
8051
8248
8037
8269
8055
8213
8121
8138
8192
8079
8241
8054
8231
8086
8168
8159
8087
8237
7996
8322
7954
8348
7966
8310
8028
8228
8106
8156
8189
8109
8254
8108
8216
8123
8141
8200
8066
8274
8026
8316
8015
8282
8056
8211
8136
8122
8216
8027
8278
7978
8302
8002
8272
8057
8197
8133
8138
8209
8101
8225
8109
8188
8161
8112
8233
8017
8299
7965
8341
7976
8322
8021
8252
8120
8150
8192
8079
8245
8047
8255
8066
8208
8127
8127
8204
8066
8252
8038
8238
8062
8190
8145
8102
8236
8026
8316
7974
8347
7968
8313
8000
8232
8087
8158
8155
8077
8191
8071
8170
8096
8109
8191
8060
8274
8014
8330
8014
8321
8048
8252
8128
8155
8218
8085
8302
8033
8317
8015
8282
8073
8207
8139
8132
8202
8082
8224
8093
8191
8153
8120
8217
8010
8303
7968
8345
7964
8330
8005
8250
8094
8176
8164
8096
8225
8053
8243
8072
8199
8127
8124
8206
8067
8266
8030
8271
8059
8222
8131
8125
8208
8028
8287
7981
8334
7970
8312
8013
8239
8083
8163
8158
8100
8208
8092
8200
8127
8153
8200
8056
8256
7995
8306
7958
8306
7999
8252
8096
8172
8175
8082
8250
8022
8284
8018
8265
8066
8197
8134
8120
8212
8074
8232
8081
8214
8152
8149
8226
8047
8295
7968
8330
7935
8324
7978
8271
8067
8201
8162
8119
8214
8063
8218
8071
8169
8121
8119
8217
8051
8273
8021
8296
8051
8260
8129
8171
8201
8066
8264
7996
8328
7981
8322
8008
8250
8084
8183
8175
8118
8209
8090
8200
8119
8156
8194
8067
8256
7993
8331
7969
8331
7997
8271
8059
8187
8155
8108
8228
8040
8275
8030
8256
8078
8200
8154
8127
8218
8065
8238
8065
8226
8118
8147
8197
8049
8276
7989
8345
7959
8344
7981
8282
8040
8209
8130
8121
8192
8072
8211
8078
8178
8125
8101
8199
8036
8279
8010
8300
8022
8267
8093
8186
8173
8082
8253
8012
8316
7990
8315
8027
8274
8093
8184
8167
8113
8216
8088
8206
8108
8158
8183
8071
8265
8008
8334
7964
8346
7978
8292
8032
8213
8139
8136
8223
8071
8257
8055
8256
8086
8196
8142
8113
8213
8054
8233
8042
8212
8087
8157
8170
8075
8263
8001
8335
7966
8347
7987
8297
8040
8219
8126
8136
8184
8087
8211
8088
8191
8139
8120
8229
8053
8292
8002
8316
7992
8276
8045
8203
8137
8108
8231
8035
8293
8012
8319
8036
8266
8086
8179
8166
8110
8215
8086
8219
8102
8169
8177
8104
8266
8024
8337
7967
8343
7976
8325
8029
8233
8113
8139
8190
8073
8234
8054
8235
8089
8183
8150
8109
8223
8046
8258
8029
8244
8074
8187
8152
8104
8242
8014
8316
7973
8335
7974
8306
8041
8226
8117
8149
8184
8097
8209
8080
8178
8136
8134
8219
8048
8298
7991
8319
7983
8286
8019
8231
8120
8148
8215
8059
8269
8024
8298
8040
8261
8095
8189
8177
8109
8213
8064
8215
8073
8169
8141
8090
8230
8013
8314
7953
8337
7953
8325
8013
8261
8095
8169
8179
8095
8227
8076
8230
8100
8183
8169
8105
8228
8046
8284
8024
8277
8053
8221
8132
8128
8230
8045
8307
7991
8336
7982
8291
8024
8228
8107
8153
8178
8103
8228
8104
8196
8154
8133
8206
8038
8284
7981
8327
7966
8324
8008
8251
8099
8169
8187
8085
8249
8038
8281
8040
8255
8094
8175
8156
8099
8236
8070
8238
8089
8211
8142
8118
8202
8014
8272
7961
8340
7955
8333
8003
8281
8087
8174
8149
8099
8200
8072
8207
8083
8153
8144
8084
8228
8020
8272
7985
8265
8022
8229
8097
8147
8184
8069
8276
8008
8343
8027
8342
8063
8256
8109
8175
8190
8110
8241
8100
8210
8143
8153
8221
8057
8301
7990
8337
7975
8344
8002
8288
8079
8191
8165
8115
8239
8053
8266
8053
8233
8084
8147
8148
8073
8226
8033
8226
8046
8205
8114
8141
8201
8053
8286
7984
8347
7962
8335
7993
8276
8060
8198
8155
8132
8208
8086
8224
8106
8176
8167
8093
8238
8027
8297
7988
8309
8016
8261
8085
8178
8166
8083
8249
8014
8300
8009
8302
8033
8230
8094
8162
8187
8102
8221
8070
8199
8106
8144
8185
8057
8273
7986
8339
7958
8344
7980
8281
8042
8200
8134
8124
8209
8067
8253
8075
8250
8121
8178
8189
8098
8266
8052
8284
8048
8247
8107
8175
8182
8083
8275
7997
8335
7970
8334
7986
8289
8050
8202
8136
8135
8205
8085
8210
8094
8166
8163
8094
8234
8033
8315
7994
8331
8000
8285
8063
8202
8141
8102
8230
8035
8277
8010
8283
8040
8226
8101
8167
8187
8099
8239
8079
8225
8109
8148
8168
8054
8240
7997
8328
7957
8354
7978
8317
8029
8223
8121
8142
8193
8077
8229
8070
8213
8104
8151
8176
8079
8247
8030
8283
8023
8260
8075
8198
8156
8098
8238
8016
8310
7976
8327
7988
8285
8061
8224
8139
8131
8194
8088
8209
8094
8172
8152
8097
8234
8022
8308
7979
8343
7981
8299
8034
8237
8128
8154
8221
8072
8269
8036
8280
8049
8226
8107
8146
8178
8086
8244
8065
8227
8089
8182
8163
8099
8252
8013
8331
7971
8353
7978
8337
8032
8259
8122
8173
8184
8092
8216
8064
8198
8096
8136
8174
8074
8255
8020
8289
8001
8272
8044
8218
8134
8122
8215
8028
8286
7984
8312
7992
8278
8043
8212
8120
8134
8185
8089
8216
8097
8193
8158
8117
8223
8036
8303
7984
8348
7975
8336
8016
8255
8101
8158
8179
8077
8241
8039
8259
8064
8245
8135
8169
8194
8082
8245
8047
8234
8060
8197
8142
8115
8227
8023
8299
7966
8339
7962
8325
8013
8256
8079
8175
8161
8097
8207
8078
8201
8097
8133
8176
8064
8245
8009
8301
7990
8289
8030
8244
8110
8149
8194
8053
8279
8017
8315
8014
8299
8069
8226
8130
8144
8192
8076
8204
8071
8179
8135
8128
8211
8037
8284
7968
8329
7957
8329
7997
8263
8078
8184
8168
8113
8233
8062
8261
8074
8215
8117
8137
8196
8066
8249
8035
8257
8051
8216
8118
8135
8210
8045
8292
7992
8347
7984
8335
8009
8262
8076
8187
8166
8131
8225
8110
8237
8126
8170
8194
8080
8258
8009
8319
7985
8320
8008
8257
8091
8185
8182
8101
8249
8028
8297
8012
8269
8048
8209
8120
8129
8196
8086
8227
8073
8203
8122
8138
8205
8042
8285
7987
8339
7956
8342
7985
8288
8057
8208
8152
8144
8219
8074
8233
8067
8200
8115
8129
8191
8051
8259
8027
8284
8038
8240
8102
8163
8181
8068
8252
8000
8323
7969
8322
8009
8277
8074
8194
8156
8114
8194
8079
8194
8094
8147
8172
8071
8258
8003
8316
7963
8321
7976
8277
8050
8197
8146
8113
8228
8035
8280
8037
8280
8084
8228
8146
8137
8213
8087
8250
8060
8211
8105
8151
8186
8078
8271
8002
8344
7968
8344
7983
8309
8045
8220
8128
8141
8200
8088
8219
8073
8185
8109
8119
8194
8056
8272
8031
8314
8036
8278
8092
8193
8154
8087
8240
8012
8306
7984
8316
8009
8272
8070
8192
8148
8112
8197
8086
8211
8111
8175
8179
8088
8250
8012
8317
7968
8337
7980
8300
8039
8226
8137
8140
8216
8057
8246
8026
8244
8062
8192
8121
8117
8198
8063
8249
8050
8230
8099
8179
8172
8082
8260
8007
8329
7963
8342
7977
8306
8026
8222
8117
8145
8177
8090
8222
8094
8206
8135
8131
8217
8068
8294
8015
8328
8027
8296
8078
8226
8155
8129
8230
8033
8283
7998
8311
7999
8258
8059
8180
8136
8113
8202
8085
8213
8093
8175
8176
8117
8265
8020
8316
7964
8345
7968
8312
8012
8231
8101
8145
8193
8067
8238
8048
8251
8074
8193
8140
8115
8213
8059
8262
8043
8251
8090
8194
8156
8103
8236
8017
8313
7972
8342
7970
8308
8026
8235
8121
8169
8194
8104
8220
8099
8197
8121
8109
8192
8033
8262
7982
8309
7979
8289
8025
8227
8123
8138
8204
8048
8270
8009
8289
8014
8257
8066
8184
8143
8108
8202
8076
8218
8084
8178
8154
8102
8231
8020
8316
7961
8343
7957
8316
7998
8251
8101
8180
8195
8122
8247
8078
8254
8098
8200
8151
8122
8225
8053
8280
8036
8261
8054
8211
8147
8145
8236
8040
8301
7985
8339
7979
8311
8028
8238
8097
8159
8174
8098
8211
8086
8199
8133
8140
8210
8056
8284
7992
8331
7983
8311
8009
8244
8100
8160
8185
8081
8255
8024
8284
8030
8254
8086
8178
8143
8100
8214
8068
8228
8078
8191
8143
8120
8231
8025
8294
7966
8353
7965
8335
8002
8267
8088
8181
8165
8112
8215
8070
8234
8090
8186
8168
8117
8232
8037
8266
8001
8261
8027
8226
8119
8147
8207
8049
8284
7999
8332
7992
8314
8035
8246
8094
8158
8161
8088
8185
8082
8192
8124
8135
8206
8052
8282
7990
8335
7969
8324
7995
8266
8082
8184
8178
8106
8244
8050
8283
8051
8260
8099
8195
8178
8108
8233
8057
8241
8063
8203
8127
8140
8216
8047
8291
7982
8349
7967
8350
8010
8279
8075
8195
8148
8108
