EMG
7892
8118
7919
8074
7989
8006
8059
7937
8097
7914
8087
7952
8024
8033
7946
8140
7856
8209
7812
8226
7822
8187
7882
8109
7973
8008
8046
7944
8070
7932
8054
7980
7994
8053
7913
8132
7871
8175
7863
8147
7911
8082
8001
7970
8100
7880
8165
7840
8189
7863
8146
7929
8071
8005
8000
8065
7962
8080
7960
8038
8026
7960
8115
7874
8183
7815
8219
7824
8192
7878
8115
7959
8004
8047
7932
8117
7900
8106
7920
8066
7987
7984
8056
7921
8103
7891
8103
7935
8063
8015
7959
8113
7864
8184
7810
8224
7822
8192
7878
8129
7971
8032
8039
7968
8079
7948
8060
7984
7991
8053
7911
8138
7864
8187
7851
8171
7889
8098
7971
7996
8078
7904
8141
7850
8165
7860
8129
7919
8057
7999
7988
8051
7929
8065
7941
8036
8000
7955
8094
7875
8176
7812
8225
7802
8201
7857
8132
7944
8034
8035
7956
8100
7923
8103
7935
8060
7997
7984
8080
7921
8129
7897
8136
7916
8082
7992
7979
8093
7888
8176
7829
8211
7825
8192
7872
8125
7953
8030
8026
7964
8062
7945
8058
7986
8002
8063
7915
8133
7847
8180
7829
8178
7867
8124
7955
8035
8062
7942
8144
7891
8170
7891
8140
7941
8067
8016
7990
8064
7929
8075
7940
8055
7998
7979
8092
7899
8187
7832
8243
7815
8209
7843
8146
7930
8049
8020
7978
8077
7930
8092
7946
8048
7996
7975
8070
7912
8137
7878
8148
7894
8099
7968
8006
8077
7917
8163
7858
8205
7836
8200
7878
8121
7951
8035
8030
7980
8081
7963
8068
7997
8019
8072
7931
8151
7857
8209
7836
8211
7855
8160
7935
8066
8042
7970
8126
7914
8159
7907
8133
7944
8061
8017
7984
8077
7925
8095
7940
8084
7994
8016
8089
7912
8160
7844
8219
7811
8225
7841
8169
7916
8083
8002
7992
8075
7951
8090
7956
8052
8014
7990
8092
7911
8145
7868
8172
7883
8141
7957
8059
8049
7944
8129
7855
8176
7835
8168
7868
8113
7933
8024
8007
7957
8056
7939
8054
7976
8004
8040
7927
8133
7844
8200
7812
8209
7836
8167
7895
8088
7998
7985
8088
7922
8117
7907
8115
7949
8054
8021
7983
8094
7925
8126
7921
8110
7963
8029
8056
7930
8140
7852
8217
7817
8226
7836
8182
7900
8102
7989
8009
8057
7956
8083
7955
8051
8016
7991
8098
7914
8166
7864
8198
7872
8167
7926
8091
8033
7987
8125
7910
8182
7877
8190
7893
8138
7965
8065
8041
7995
8095
7963
8094
7989
8056
8058
7968
8152
7881
8218
7830
8243
7828
8199
7898
8135
7992
8025
8081
7956
8121
7934
8114
7953
8046
8025
7967
8091
7908
8136
7906
8140
7950
8072
8024
7965
8136
7889
8208
7842
8241
7855
8206
7913
8122
7985
8018
8052
7963
8080
7963
8061
8019
7993
8098
7918
8181
7863
8211
7850
8191
7900
8120
7985
8004
8091
7925
8159
7889
8176
7905
8137
7968
8052
8037
7984
8088
7939
8093
7957
8043
8025
7968
8129
7885
8213
7840
8267
7844
8227
7878
8135
7955
8037
8042
7972
8108
7952
8111
7983
8067
8049
7985
8114
7919
8163
7892
8152
7919
8103
8015
8012
8121
7910
8193
7852
8226
7857
8199
7909
8112
7980
8033
8051
7977
8096
7984
8079
8025
8011
8098
7925
8183
7853
8234
7848
8213
7885
8155
7976
8059
8075
7970
8141
7910
8164
7914
8122
7968
8055
8044
7979
8104
7939
8118
7951
8073
8014
7997
8111
7908
8198
7846
8249
7832
8230
7867
8165
7953
8061
8031
7984
8088
7956
8093
7984
8058
8048
7976
8117
7912
8174
7879
8183
7914
8137
7984
8045
8093
7947
8176
7877
8211
7868
8179
7902
8122
7983
8048
8062
7984
8101
7972
8082
8019
8020
8089
7931
8186
7866
8251
7841
8235
7865
8173
7941
8077
8047
7986
8130
7934
8156
7924
8111
7973
8046
8051
7971
8115
7933
8134
7941
8112
8000
8029
8097
7931
8187
7861
8238
7835
8242
7871
8180
7943
8082
8025
8005
8085
7968
8090
7977
8047
8040
7978
8113
7906
8188
7876
8202
7887
8163
7956
8076
8060
7973
8149
7904
8194
7879
8172
7914
8128
7993
8045
8055
7989
8110
7980
8103
8010
8041
8093
7946
8173
7873
8241
7830
8244
7853
8199
7931
8111
8019
8012
8103
7952
8132
7939
8104
7991
8053
8064
7970
8129
7917
8159
7923
8136
7977
8061
8074
7951
8163
7873
8227
7846
8244
7871
8194
7945
8097
8021
8024
8087
7982
8104
7994
8064
8058
7990
8141
7912
8211
7873
8223
7873
8187
7936
8108
8035
7994
8123
7922
8178
7905
8176
7927
8126
7983
8035
8059
7980
8106
7954
8101
7987
8048
8077
7962
8161
7881
8236
7837
8263
7853
8219
7916
8131
8003
8033
8093
7978
8127
7968
8120
8010
8060
8078
7975
8142
7922
8182
7917
8167
7960
8096
8063
7990
8146
7897
8206
7850
8220
7871
8185
7934
8108
8019
8026
8085
7984
8094
7972
8051
8029
7977
8127
7907
8204
7860
8235
7853
8204
7913
8137
8006
8041
8111
7952
8170
7924
8170
7940
8126
8013
8061
8087
7992
8137
7975
8150
7990
8089
8068
7989
8161
7905
8234
7844
8263
7842
8222
7893
8142
7972
8040
8056
7976
8104
7969
8097
7999
8040
8074
7965
8150
7907
8195
7894
8182
7940
8119
8031
8027
8135
7925
8201
7876
8222
7885
8191
7949
8126
8037
8054
8108
8004
8127
8015
8098
8060
8015
8141
7927
8211
7862
8255
7849
8225
7892
8155
7972
8053
8074
7959
8135
7927
8144
7947
8105
7996
8030
8073
7961
8128
7935
8153
7970
8105
8035
8016
8145
7923
8224
7863
8266
7849
8233
7891
8165
7984
8096
8073
8019
8129
8001
8116
8021
8053
8083
7972
8165
7910
8214
7887
8216
7916
8150
7992
8051
8091
7948
8163
7884
8198
7886
8169
7939
8109
8018
8034
8079
7984
8115
7977
8084
8029
8013
8124
7939
8210
7864
8264
7848
8242
7880
8185
7967
8098
8061
8001
8140
7967
8157
7983
8130
8035
8061
8119
7994
8171
7950
8185
7955
8142
8025
8051
8117
7946
8196
7870
8242
7850
8223
7881
8163
7958
8069
8037
7996
8095
7977
8087
7998
8038
8074
7965
8166
7899
8230
7871
8222
7894
8178
7965
8092
8076
7994
8162
7929
8208
7925
8186
7973
8137
8043
8063
8114
8004
8142
7992
8128
8035
8053
8120
7958
8210
7879
8257
7836
8244
7854
8190
7932
8104
8021
8013
8094
7963
8112
7961
8090
8013
8028
8088
7960
8155
7910
8180
7920
8157
7983
8078
8095
7976
8187
7898
8235
7872
8243
7906
8199
7981
8109
8064
8049
8128
8021
8131
8036
8075
8094
7993
8174
7905
8240
7870
8245
7877
8197
7939
8112
8032
7995
8117
7927
8164
7904
8153
7953
8097
8020
8029
8093
7973
8137
7962
8134
8005
8076
8097
7965
8185
7891
8255
7857
8279
7872
8228
7940
8151
8038
8066
8130
8014
8150
8007
8124
8059
8056
8126
7976
8196
7927
8227
7919
8190
7977
8107
8060
7990
8149
7911
8215
7870
8222
7884
8171
7967
8096
8037
8021
8093
7982
8105
8002
8069
8073
7985
8161
7902
8233
7859
8268
7869
8229
7926
8146
8027
8056
8126
7978
8177
7958
8176
7994
8131
8056
8056
8134
7991
8182
7970
8174
7998
8106
8084
7986
8157
7893
8228
7844
8264
7853
8215
7909
8140
7996
8050
8076
7991
8115
7986
8094
8022
8030
8109
7956
8184
7895
8225
7898
8207
7940
8142
8043
8044
8136
7949
8211
7906
8230
7923
8197
7995
8131
8072
8053
8122
8004
8141
8013
8091
8070
8015
8171
7923
8232
7866
8270
7851
8229
7902
8154
7983
8066
8089
7990
8153
7960
8149
7980
8098
8042
8016
8107
7955
8158
7930
8166
7966
8113
8052
8019
8151
7928
8233
7875
8282
7881
8250
7935
8179
8021
8090
8107
8031
8139
8020
8116
8048
8059
8139
7973
8209
7907
8255
7886
8223
7920
8154
8005
8058
8106
7953
8174
7917
8208
7923
8167
7971
8091
8047
8019
8110
7984
8126
7986
8093
8050
8015
8145
7933
8240
7875
8281
7854
8261
7899
8193
7985
8099
8097
8029
8162
8000
8153
8012
8123
8072
8043
8146
7961
8195
7935
8197
7954
8140
8039
8047
8130
7945
8213
7879
8246
7869
8229
7915
8165
7993
8070
8066
8008
8105
7994
8096
8038
8053
8122
7969
8196
7894
8251
7872
8245
7913
8189
7994
8097
8093
7999
8176
7959
8218
7958
8183
8006
8115
8083
8050
8143
7992
8170
7999
8136
8051
8052
8135
7940
8216
7869
8268
7842
8248
7879
8193
7959
8096
8047
8015
8108
7981
8128
7996
8095
8057
8017
8133
7948
8189
7916
8218
7944
8181
8016
8085
8119
7982
8201
7907
8242
7887
8245
7940
8191
8020
8099
8097
8036
8139
8020
8127
8049
8063
8126
7977
8201
7900
8260
7858
8243
7881
8198
7956
8105
8061
8005
8138
7945
8173
7941
8153
7996
8090
8065
8016
8126
7971
8169
7966
8140
8024
8066
8119
7965
8212
7892
8283
7872
8282
7897
8226
7977
8145
8063
8059
8140
8021
8157
8028
8108
8081
8033
8167
7956
8232
7916
8237
7923
8194
7982
8105
8077
7989
8166
7916
8219
7893
8231
7920
8163
7992
8084
8077
8023
8124
7994
8114
8022
8061
8102
7981
8196
7902
8271
7866
8288
7884
8226
7952
8141
8058
8049
8143
7984
8183
7973
8159
8011
8105
8089
8031
8158
7970
8199
7967
8166
8012
8097
8104
7990
8191
7900
8252
7865
8263
7881
8215
7954
8138
8033
8049
8111
8001
8122
8010
8095
8073
8028
8159
7942
8220
7896
8248
7901
8210
7968
8135
8065
8042
8162
7959
8224
7933
8243
7956
8178
8019
8103
8101
8029
8141
8002
8152
8029
8095
8110
7998
8189
7915
8254
7859
8285
7868
8229
7929
8151
8014
8066
8117
7996
8154
7976
8138
8010
8081
8077
8010
8162
7956
8200
7943
8186
7990
8120
8079
8013
8178
7928
8252
7886
8280
7903
8230
7965
8159
8051
8075
8123
8038
8150
8040
8131
8098
8047
8171
7945
8230
7877
8242
7877
8228
7942
8148
8031
8048
8125
7966
8198
7929
8205
7948
8155
8017
8084
8085
8014
8143
7987
8154
8011
8111
8098
8022
8185
7924
8247
7868
8287
7865
8258
7939
8189
8025
8104
8125
8036
8177
8012
8156
8039
8101
8103
8017
8181
7954
8222
7922
8206
7968
8139
8054
8041
8152
7949
8226
7887
8252
7886
8220
7942
8150
8023
8057
8093
8009
8133
8010
8102
8059
8030
8153
7950
8232
7896
8280
7883
8258
7933
8195
8023
8098
8124
8006
8186
7961
8206
7974
8154
8024
8090
8106
8023
8166
7986
8180
8006
8128
8079
8037
8167
7941
8235
7870
8283
7860
8257
7919
8191
7996
8103
8082
8019
8129
8001
8133
8024
8078
8101
8003
8189
7944
8242
7924
8232
7942
8172
8035
8080
8131
7977
8215
7922
8252
7920
8240
7965
8165
8050
8082
8112
8025
8151
8028
8135
8074
8058
8160
7969
8233
7897
8283
7864
8261
7901
8200
7983
8112
8087
8013
8162
7968
8186
7975
8140
8026
8078
8106
8007
8167
7965
8186
7982
8152
8059
8081
8149
7962
8227
7896
8287
7883
8280
7920
8214
7999
8132
8080
8047
8138
8016
8138
8047
8090
8108
8007
8189
7938
8255
7905
8246
7928
8202
8006
8110
8102
7994
8181
7928
8223
7921
8219
7960
8136
8028
8065
8106
8014
8141
8006
8137
8052
8067
8141
7974
8224
7894
8281
7864
8288
7896
8233
7980
8152
8091
8055
8154
7990
8176
7993
8146
8052
8082
8117
8000
8177
7960
8205
7962
8172
8023
8090
8115
7980
8208
7909
8264
7883
8271
7912
8211
7990
8136
8068
8050
8121
8013
8132
8031
8084
8103
8018
8184
7933
8256
7898
8262
7906
8223
7977
8137
8075
8050
8177
7971
8224
7948
8213
7984
8145
8052
8075
8117
8009
8154
7994
8155
8033
8085
8126
7991
8213
7917
8285
7868
8291
7887
8245
7966
8165
8047
8078
8141
8010
8152
7998
8131
8044
8065
8122
7996
8198
7944
8223
7946
8204
7999
8129
8102
8018
8190
7935
8251
7900
8273
7915
8215
7985
8138
8062
8050
8125
8020
8138
8035
8102
8096
8021
8192
7945
8264
7890
8280
7890
8240
7950
8160
8054
8074
8146
7991
8205
7964
8200
7984
8144
8055
8067
8123
8004
8159
7978
8167
8020
8116
8107
8023
8199
7930
8274
7881
8299
7882
8255
7937
8173
8025
8073
8120
8014
8142
8007
8130
8050
8071
8130
7995
8205
7932
8235
7921
8225
7994
8168
8085
8069
8173
7961
8237
7913
8261
7928
8219
7987
8145
8071
8060
8128
8026
8139
8029
8123
8106
8037
8178
7945
8256
7886
8299
7886
8264
7933
8179
8011
8078
8099
7988
8160
7957
8164
7975
8128
8045
8059
8126
7990
8172
7965
8187
7996
8137
8087
8049
8182
7961
8262
7903
8311
7897
8275
7947
8192
8029
8120
8119
8047
8151
8033
8139
8062
8077
8140
7996
8216
7935
8267
7916
8246
7954
8181
8042
8079
8128
7975
8198
7921
8226
7927
8194
7969
8119
8050
8046
8111
8003
8149
8017
8126
8075
8050
8179
7973
8262
7913
8318
7899
8308
7933
8230
8022
8138
8118
8048
8185
8007
8197
8020
8150
8076
8075
8154
8002
8206
7959
8208
7974
8166
8054
8072
8149
7970
8230
7886
8271
7877
8249
7912
8180
7995
8092
8078
8028
8122
8009
8123
8043
8073
8132
7999
8221
7939
8289
7916
8305
7961
8241
8044
8134
8126
8022
8205
7969
8235
7960
8226
8012
8147
8083
8073
8153
8023
8184
8019
8161
8083
8084
8159
7978
8244
7915
8300
7871
8287
7892
8206
7959
8114
8043
8020
8106
7970
8126
7986
8106
8052
8042
8136
7979
8227
7957
8241
7979
8212
8055
8124
8144
8015
8231
7946
8292
7930
8287
7962
8229
8033
8152
8108
8066
8153
8041
8153
8061
8093
8139
8011
8216
7937
8281
7892
8289
7905
8229
7977
8132
8061
8021
8144
7953
8190
7946
8166
7981
8109
8056
8044
8128
7986
8169
7983
8164
8043
8108
8160
8024
8256
7949
8327
7907
8328
7932
8272
8001
8197
8096
8104
8159
8044
8182
8043
8144
8095
8073
8166
7988
8237
7932
8247
7942
8212
8002
8131
8083
8012
8173
7922
8215
7887
8223
7908
8166
7974
8085
8058
8033
8131
8011
8133
8028
8091
8130
8030
8223
7964
8313
7924
8336
7928
8283
7986
8201
8086
8105
8157
8019
8216
7996
8200
8024
8141
8087
8067
8166
8011
8217
7984
8184
8015
8115
8098
8009
8187
7918
8260
7873
8273
7869
8212
7922
8133
8005
8042
8085
7998
8121
8007
8106
8058
8041
8149
7981
8234
7937
8293
7950
8268
7998
8195
8103
8112
8201
8002
8256
7961
8279
7972
8224
8041
8144
8101
8063
8163
8025
8176
8040
8127
8107
8031
8197
7940
8266
7886
8302
7878
8252
7916
8165
7994
8069
8097
7993
8159
7968
8146
8001
8103
8069
8030
8152
7981
8223
7978
8231
8023
8175
8107
8069
8196
7982
8284
7926
8316
7928
8293
7983
8206
8059
8110
8127
8052
8165
8043
8141
8091
8082
8173
7995
8245
7928
8275
7907
8251
7938
8176
8009
8061
8099
7953
8171
7912
8196
7925
8152
7988
8086
8061
8022
8132
7995
8170
8019
8147
8118
8086
8221
8001
8297
7930
8342
7912
8321
7959
8239
8039
8144
8134
8060
8185
8029
8173
8043
8127
8098
8054
8181
7984
8241
7954
8223
7968
8167
8053
8072
8143
7957
8212
7890
8235
7870
8219
7923
8151
7993
8067
8080
8014
8126
8012
8117
8057
8060
8158
8004
8255
7947
8330
7933
8323
7974
8252
8054
8157
8144
8065
8217
7997
8234
7995
8207
8036
8127
8119
8059
8171
8008
8193
8004
8154
8066
8068
8149
7958
8234
7891
8286
7859
8272
7890
8192
7964
8101
8048
8021
8114
7994
8129
8016
8107
8085
8026
8187
7972
8261
7956
8271
7980
8228
8068
8141
8173
8050
8253
7970
8290
7950
8280
7982
8213
8051
8121
8128
8057
8168
8040
8158
8060
8073
8143
7990
8228
7926
8302
7889
8299
7905
8217
7967
8111
8060
8015
8136
7959
8183
7966
8154
8018
8091
8089
8020
8157
7983
8209
8004
8205
8079
8123
8168
8025
8257
7941
8318
7914
8326
7951
8271
8019
8179
8108
8097
8168
8050
8168
8051
8123
8113
8056
8201
7976
8258
7916
8258
7929
8207
7983
8120
8080
8005
8160
7923
8211
7900
8205
7932
8148
8008
8082
8091
8026
8146
8012
8162
8060
8119
8157
8032
8263
7968
8336
7923
8347
7937
8279
8002
8200
8106
8113
8185
8042
8219
8024
8177
8055
8117
8124
8041
8201
7987
8224
7976
8198
8020
8124
8116
8014
8197
7916
8242
7863
8256
7876
8201
7946
8129
8036
8048
8101
8006
8126
8028
8106
8099
8054
8202
7983
8293
7947
8318
7949
8276
8007
8204
8114
8105
8204
8017
8256
7984
8265
7994
8201
8062
8125
8134
8051
8178
8024
8181
8045
8118
8124
8024
8205
7926
8264
7868
8282
7859
8227
7911
8148
8007
8060
8100
7996
8157
7993
8139
8030
8089
8105
8017
8199
7983
8269
7984
8247
8025
8191
8133
8101
8236
8003
8303
7947
8317
7949
8274
8001
8181
8068
8089
8138
8044
8163
8051
8127
8102
8059
8184
7975
8257
7902
8280
7877
8234
7922
8162
8013
8056
8104
7965
8170
7936
8188
7957
8143
8022
8078
8107
8019
8175
8009
8201
8045
8172
8139
8087
8232
7996
8322
7937
8343
7927
8321
7972
8236
8055
8144
8148
8076
8186
8044
8168
8067
8117
8130
8026
8219
7972
8262
7940
8243
7968
8171
8046
8056
8136
7947
8200
7889
8230
7894
8202
7942
8139
8035
8054
8107
8024
8151
8043
8154
8113
8082
8192
7999
8294
7948
8345
7931
8329
7969
8253
8055
8160
8142
8049
8211
8006
8224
8011
8174
8069
8111
8145
8041
8190
7994
8209
8003
8161
8074
8070
8165
7963
8226
7885
8276
7856
8256
7896
8177
7975
8088
8066
8026
8124
8010
8136
8049
8105
8142
8041
8231
7987
8297
7959
8308
7988
8241
8067
8151
8162
8059
8248
7985
8292
7973
8270
8006
8197
8083
8103
8144
8044
8174
8036
8161
8076
8095
8166
7989
8241
7905
8286
7863
8281
7889
8204
7957
8119
8060
8019
8135
7970
8148
7982
8132
8042
8078
8138
8034
8239
8002
8269
8031
8227
8089
8142
8172
8032
8263
7959
8328
7933
8324
7961
8261
8036
8175
8124
8084
8166
8043
8158
8060
8105
8127
8028
8206
7948
8273
7910
8281
7917
8217
7972
8116
8060
8002
8147
7941
8206
7929
8191
7967
8133
8037
8071
8119
8013
8179
8021
8186
8079
8136
8180
8044
8270
7953
8324
7910
8334
7937
8285
8016
8210
8104
8124
8185
8047
8204
8041
8168
8085
8099
8146
8018
8217
7966
8247
7970
8213
8007
8129
8093
8001
8168
7906
8227
7874
8247
7897
8197
7974
8129
8069
8061
8126
8033
8153
8057
8134
8145
8058
8239
7995
8321
7950
8341
7946
8290
8003
8211
8108
8110
8198
8035
8246
7998
8245
8023
8179
8079
8094
8152
8035
8206
8014
8198
8043
8127
8127
8027
8210
7929
8260
7868
8279
7859
8221
7915
8153
8018
8068
8099
8018
8146
8007
8137
8058
8087
8163
8029
8249
7982
8297
7987
8279
8032
8206
8131
8106
8216
8009
8293
7967
8309
7971
8264
8017
8172
8098
8102
8179
8057
8191
8063
8143
8125
8050
8200
7963
8258
7882
8277
7864
8248
7916
8167
7997
8065
8098
7987
8165
7961
8162
7988
8140
8063
8072
8147
8022
8237
8018
8240
8053
8193
8138
8102
8225
7996
8305
7936
8338
7939
8319
7983
8232
8064
8154
8154
8074
8189
8049
8160
8082
8092
8159
8018
8228
7946
8275
7922
8250
7940
8170
8027
8064
8114
7966
8189
7917
8222
7920
8198
7978
8125
8066
8068
8144
8034
8177
8048
8171
8129
8105
8223
8017
8306
7940
8344
7927
8334
7968
8260
8044
8165
8145
8073
8196
8029
8212
8036
8159
8095
8087
8171
8011
8229
7968
8218
7985
8170
8053
8069
8136
7955
8209
7876
8247
7873
8250
7910
8179
8000
8114
8079
8035
8139
8027
8145
8073
8107
8172
8042
8261
7980
8324
7954
8329
7976
8265
8061
8171
8158
8070
8236
8004
8270
7991
8254
8033
8179
8103
8093
8169
8037
8202
8036
8166
8070
8081
8142
7974
8226
7891
8282
7858
8278
7880
8213
7959
8128
8057
8042
8137
7999
8144
8004
8128
8076
8074
8182
8022
8270
7994
8295
8017
8242
8077
8160
8177
8061
8256
7981
8312
7947
8312
7980
8246
8046
8164
8109
8080
8162
8049
8174
8078
8113
8144
8023
8225
7941
8285
7892
8276
7892
8214
7952
8127
8051
8031
8144
7968
8197
7954
8181
7997
8128
8082
8067
8164
8034
8224
8033
8221
8095
8151
8184
8049
8266
7967
8336
7924
8354
7951
8308
8008
8201
8098
8117
8162
8046
8185
8050
8157
8092
8078
8175
7992
8247
7935
8248
7941
8220
7985
8134
8075
8015
8164
7933
8222
7902
8243
7928
8196
8001
8116
8086
8064
8157
8051
8192
8084
8157
8173
8078
8258
7986
8328
7936
8354
7939
8301
7990
8209
8085
8122
8173
8036
8219
8007
8214
8041
8152
8102
8073
8171
8013
8216
7992
8204
8021
8127
8102
8020
8183
7918
8240
7871
8277
7874
8238
7943
8170
8034
8080
8111
8039
8155
8038
8149
8100
8099
8195
8020
8284
7974
8321
7968
8292
8019
8231
8118
8129
8209
8036
8271
7979
8289
7985
8250
8045
8163
8114
8076
8171
8042
8189
8043
8145
8119
8047
8190
7944
8256
7876
8291
7865
8251
7914
8178
8000
8087
8104
8021
8175
7991
8167
8026
8134
8110
8072
8202
8021
8264
8007
8261
8041
8210
8131
8113
8226
8010
8303
7951
8343
7953
8304
7982
8222
8067
8140
8156
8070
8179
8061
8152
8099
8084
8170
7999
8242
7927
8281
7895
8251
7922
8174
8005
8080
8101
7986
8182
7940
8215
7956
8192
8011
8125
8104
8071
8176
8033
8222
8070
8199
8149
8126
8234
8020
8305
7950
8351
7928
8332
7968
8259
8048
8171
8135
8079
8190
8039
8195
8055
8144
8110
8063
8188
7983
8249
7953
8231
7957
8173
8033
8067
8119
7966
8206
7900
8253
7889
8238
7929
8181
8027
8099
8105
8048
8161
8051
8176
8102
8124
8196
8038
8279
7975
8335
7937
8337
7971
8275
8050
8179
8148
8087
8223
8022
8250
8011
8226
8052
8144
8120
8068
8174
8012
8208
8011
8167
8069
8091
8141
7972
8221
7885
8276
7861
8278
7898
8219
7974
8137
8066
8067
8157
8033
8165
8057
8146
8123
8083
8218
8015
8303
7986
8322
8004
8259
8070
8171
8156
8080
8252
7980
8299
7968
8294
7986
8224
8056
8132
8131
8067
8176
8045
8172
8069
8107
8146
8004
8225
7927
8293
7883
8289
7885
8233
7957
8138
8040
8035
8129
7973
8184
7973
8172
8042
8132
8128
8073
8218
8029
8260
8019
8234
8091
8167
8177
8070
8265
7984
8338
7945
8346
7957
8288
8019
8194
8085
8099
8157
8056
8171
8055
8137
8097
8053
8187
7984
8268
7920
8276
7926
8233
7970
8144
8065
8040
8159
7957
8217
7929
8225
7960
8193
8036
8125
8124
8071
8187
8056
8210
8092
8158
8170
8061
8249
7981
8330
7927
8361
7942
8318
8001
8228
8090
8127
8165
8052
8212
8027
8190
8054
8124
8124
8054
8198
7991
8232
7966
8209
8002
8128
8082
8017
8168
7934
8241
7885
8272
7899
8234
7957
8166
8049
8078
8131
8055
8172
8072
8172
8143
8105
8232
8024
8308
7965
8343
7962
8305
8012
8232
8100
8130
8193
8038
8252
7996
8267
8011
8220
8063
8130
8127
8064
8183
8023
8196
8036
8140
8101
8036
8183
7946
8252
7873
8288
7865
8256
7923
8195
8011
8107
8112
8040
8174
8020
8171
8070
8145
8162
8071
8255
8021
8305
8004
8289
8039
8229
8121
8129
8201
8014
8275
7950
8318
7948
8279
8002
8215
8080
8122
8156
8065
8178
8059
8156
8095
8071
8166
7970
8233
7898
8289
7876
8249
7902
8181
7991
8089
8104
8010
8185
7966
8210
7981
8190
8050
8128
8144
8070
8231
8042
8243
8062
8201
8133
8118
8220
8010
8295
7951
8353
7927
8327
7970
8258
8052
8170
8142
8088
8192
8055
8184
8076
8137
8151
8049
8219
7968
8260
7918
8236
7937
8166
8001
8078
8112
7975
8206
7925
8248
7927
8245
7969
8186
8055
8105
8139
8061
8197
8068
8196
8126
8137
8213
8040
8292
7969
8354
7934
8343
7965
8271
8031
8181
8138
8095
8210
8030
8235
8026
8197
8069
8124
8146
8049
8220
7993
8215
7991
8172
8041
8081
8130
7973
8212
7896
8281
7881
8284
7912
8223
7998
8148
8090
8077
8169
8052
8176
8088
8156
8162
8072
8247
8000
8318
7971
8333
7990
8276
8064
8184
8146
8068
8229
7995
8271
7974
8266
8003
8205
8073
8109
8140
8051
8171
8024
8170
8073
8102
8145
7990
8218
7905
8277
7862
8285
7888
8233
7956
8160
8070
8073
8152
8014
8197
8024
8181
8085
8135
8187
8070
8265
8026
8290
8023
8236
8074
8165
8168
8071
8258
7978
8319
7943
8327
7964
8267
8022
8189
8107
8099
8168
8051
8165
8070
8123
8112
8040
8196
7951
8263
7900
8273
7888
8217
7952
8139
8067
8056
8165
7982
8219
7960
8237
7992
8182
8070
8117
8165
8074
8240
8067
8231
8102
8163
8172
8072
8266
7990
8343
7932
8357
7947
8317
7997
8220
8095
8133
8171
8068
8210
8051
8176
8081
8115
8160
8033
8215
7955
8236
7934
8208
7978
8128
8072
8018
8164
7942
8241
7909
8277
7928
8241
7996
8167
8087
8095
8166
8059
8197
8075
8169
8163
8090
8244
8014
8323
7952
8342
7951
8323
8004
8237
8098
8136
8182
8044
8239
8013
8246
8027
8188
8076
8103
8140
8020
8197
7999
8195
8015
8125
8091
8022
8174
7935
8254
7878
8295
7884
8260
7939
8191
8026
8114
8126
8053
8188
8056
8193
8108
8151
8196
8068
8279
7996
8312
7979
8295
8020
8238
8111
8133
8205
8034
8281
7976
8311
7975
8275
8026
8190
8094
8099
8152
8051
8185
8049
8146
8108
8057
8182
7961
8243
7882
8287
7867
8261
7914
8205
8007
8117
8116
8025
8181
7994
8213
8030
8189
8097
8124
8200
8060
8265
8034
8261
8057
8217
8128
8124
8223
8024
8302
7948
8341
7937
8319
7980
8252
8057
8161
8139
8080
8178
8051
8161
8072
8094
8140
8017
8206
7934
8264
7898
8241
7928
8180
8006
8094
8120
8002
8201
7944
8245
7952
8236
8013
8179
8102
8110
8191
8075
8231
8083
8210
8143
8140
8223
8031
8298
7954
8349
7925
8338
7959
8266
8032
8182
8138
8096
8199
8040
8214
8038
8163
8086
8100
8176
8026
8231
7957
8220
7968
8168
8013
8075
8115
7972
8220
7903
8265
7893
8278
7940
8215
8018
8152
8117
8090
8190
8081
8199
8114
8160
8192
8072
8284
8002
8334
7953
8337
7977
8278
8056
8187
8138
8087
8229
8013
8265
7998
8258
8035
8185
8100
8099
8166
8039
8199
8021
8170
8052
8089
8144
7983
8211
7893
8275
7866
8292
7899
8244
7980
8162
8085
8087
8165
8041
8203
8058
8186
8120
8127
8211
8052
8292
8008
8313
8014
8251
8071
8173
8159
8078
8247
7988
8316
7959
8315
7975
8241
8033
8167
8114
8080
8160
8042
8172
8065
8111
8139
8011
8201
7927
8259
7878
8275
7884
8229
7957
8153
8063
8073
8164
7998
8221
7993
8235
8041
8185
8122
8118
8213
8069
8256
8053
8235
8098
8168
8175
8082
8265
7983
8338
7935
8348
7944
8306
8008
8216
8093
8122
8170
8064
8199
8058
8158
8102
8094
8177
7996
8225
7927
8242
7912
8207
7959
8125
8062
8034
8168
7949
8236
7926
8270
7956
8226
8031
8171
8123
8100
8203
8079
8218
8102
8182
8177
8095
8248
7998
8340
7950
8360
7954
8334
7999
8231
8089
8134
8169
8044
8221
8013
8217
8047
8154
8100
8076
8185
8008
8218
7980
8200
8005
8120
8084
8023
8184
7936
8257
7891
8299
7900
8256
7958
8192
8058
8122
8152
8081
8208
8082
8196
8132
8137
8220
8050
8292
7984
8329
7970
8305
8022
8237
8106
8132
8201
8038
8264
7981
8294
7993
8250
8037
8163
8117
8082
8169
8028
8177
8035
8131
8090
8028
8171
7936
8244
7869
8286
7873
8272
7934
8209
8025
8125
8122
8055
8198
8037
8217
8062
8190
8144
8110
8226
8049
8282
8015
8271
8045
8219
8126
8121
8219
8019
8296
7946
8332
7944
8308
7995
8226
8062
8145
8147
8066
8170
8059
8163
8092
8081
8166
7983
8222
7908
8272
7886
8253
7924
8193
8014
8111
8127
8010
8208
7979
8242
7984
8236
8052
8176
8138
8107
8215
8068
8240
8079
8209
8140
8116
8219
8023
8318
7956
8352
7933
8343
7966
8265
8041
8171
8139
8080
8191
8041
8197
8051
8142
8110
8060
8186
7985
8233
7937
8220
7950
8173
8036
8084
8142
8004
8243
7947
8300
7932
8277
7960
8208
8042
8122
8134
8080
8205
8076
8192
8121
8140
8204
8056
8294
7981
8352
7950
8343
7971
8269
8054
8179
8148
8085
8212
8013
8245
8012
8229
8047
8146
8116
8066
8176
8010
8201
8002
8162
8045
8071
8138
7973
8231
7907
8295
7885
8296
7909
8236
8000
8167
8110
8089
8189
8073
8228
8093
8181
8160
8106
8243
8025
8304
7992
8316
8004
8263
8073
8174
8171
8072
8251
7989
8302
7960
8298
7997
8221
8054
8144
8132
8065
8168
8039
8165
8062
8084
8133
7997
8213
7909
8277
7873
8292
7907
8250
7978
8167
8098
8087
8174
8013
8219
8021
8224
8085
8182
8175
8101
8245
8048
8278
8044
8237
8099
8162
8177
8058
8260
7969
8328
7934
8339
7954
8296
8029
8207
8111
8107
8174
8057
8177
8065
8130
8107
8054
8189
7967
8243
7907
8248
7911
8213
7980
8146
8084
8050
8190
7975
8247
7952
8268
8007
8227
8078
8166
8169
8096
8230
8080
8222
8113
8169
8193
8088
8274
7983
8349
7939
8360
7948
8307
8007
8221
8099
8126
8178
8047
8214
8026
8187
8067
8123
8120
8045
8187
7974
8210
7952
8191
7993
8116
8093
8014
8189
7940
8270
7897
8294
7920
8256
8000
8199
8099
8131
8185
8094
8231
8103
8192
8161
8111
8251
8027
8321
7971
8340
7965
8294
8009
8215
8109
8127
8219
8037
8263
7998
8271
8008
8204
8061
8120
8126
8047
8173
8011
8170
8022
8111
8098
8009
8178
7925
8255
7875
8300
7888
8267
7947
8200
8047
8129
8153
8066
8215
8059
8225
8103
8171
8184
8086
8268
8029
8305
8010
8284
8045
8211
8131
8115
8216
8007
8299
7961
8330
7964
8293
8011
8209
8094
8121
8168
8065
8176
8054
8131
8084
8047
8163
7948
8236
7898
8285
7891
8261
7938
8197
8042
8114
8144
8025
8222
7996
8260
8028
8229
8097
8169
8192
8091
8247
8054
8248
8071
8203
8147
8112
8235
8011
8331
7949
8353
7936
8334
7979
8259
8061
8155
8142
8075
8191
8043
8173
8071
8118
8127
8026
8193
7950
8244
7928
8237
7962
8181
8053
8093
8151
7989
8233
7941
8282
7944
8278
8014
8215
8101
8155
8194
8100
8227
8081
8184
8133
8121
8220
8028
8307
7958
8345
7938
8341
7973
8271
8069
8181
8164
8091
8222
8027
8231
8019
8195
8071
8109
8139
8027
8181
7983
8209
7990
8150
8053
8058
8151
7965
8233
7897
8294
7891
8291
7935
8233
8037
8172
8143
8109
8214
8099
8232
8118
8175
8182
8080
8266
8004
8310
7967
8319
7991
8253
8080
8166
8168
8064
8254
7994
8295
7973
8275
8010
8199
8080
8114
8146
8040
8166
8026
8142
8056
8061
8141
7969
8225
7896
8291
7880
8302
7914
8242
8004
8157
8106
8094
8207
8048
8239
8057
8219
8117
8162
8202
8075
8267
8025
8269
8035
8245
8101
8152
8189
8055
8281
7975
8336
7950
8332
7970
8258
8034
8177
8119
8088
8172
8047
8160
8054
8103
8109
8018
8200
7936
8259
7896
8266
7916
8220
7987
8149
8103
8053
8194
7991
8262
7983
8268
8036
8225
8121
8163
8205
8087
8247
8067
8220
8118
8156
8195
8059
8280
7969
8349
7938
8365
7954
8293
8016
8221
8118
8124
8181
8043
8202
8030
8166
8077
8090
8138
8003
8205
7946
8221
7944
8197
8000
8123
8109
8025
8213
7947
8271
7921
8298
7962
8276
8048
8207
8149
8133
8213
8093
8206
8100
8164
8170
8088
8262
8000
8331
7966
8361
7969
8313
8030
8224
8115
8115
8193
8018
8232
7986
8243
8023
8186
8092
8104
8144
8021
8175
7985
8166
8017
8106
8103
8000
8194
7927
8278
7894
8310
7911
8277
7980
8222
8097
8145
8188
8093
8235
8088
8212
8119
8150
8207
8063
8289
8003
8318
7996
8282
8036
8203
8134
8114
8223
8011
8295
7967
8313
7978
8274
8035
8184
8105
8098
8154
8042
8160
8044
8111
8092
8030
8180
7948
8251
7896
8297
7895
8269
7952
8203
8061
8123
8160
8051
8236
8031
8260
8062
8212
8129
8130
8213
8070
8264
8042
8250
8070
8193
8150
8109
8246
8004
8329
7947
8348
7939
8312
7987
8230
8068
8143
8141
8071
8180
8047
8154
8069
8077
8145
7993
8212
7937
8267
7923
8249
7965
8188
8062
8089
8157
7986
8232
7958
8287
7984
8272
8056
8210
8142
8136
8216
8086
8233
8087
8196
8153
8115
8239
8015
8322
7953
8357
7931
8342
7981
8261
8072
8165
8153
8071
8210
8023
8216
8040
8161
8087
8078
8146
7990
8197
7953
8205
7980
8153
8071
8072
8167
7979
8254
7920
8307
7920
8309
7982
8245
8076
8181
8178
8111
8223
8093
8208
8125
8141
8200
8052
8280
7985
8333
7970
8330
7997
8260
8085
8163
8170
8063
8243
8002
8283
7988
8246
8033
8169
8100
8078
8144
8009
8154
8001
8130
8052
8052
8152
7972
8248
7904
8313
7897
8314
7933
8252
8027
8183
8139
8113
8221
8077
8252
8086
8201
8143
8126
8223
8050
8282
8017
8297
8022
8245
8103
8158
8195
8059
8272
7967
8314
7936
8305
7974
8239
8045
8158
8137
8074
8164
8044
8150
8061
8079
8120
7986
8207
7914
8283
7899
8285
7922
8235
7998
8150
8111
8077
8209
8018
8282
8030
8277
8079
8205
8160
8131
8240
8069
8265
8062
8224
8116
8150
8197
8047
8280
7966
8348
7924
8348
7958
8282
8023
8194
8109
8107
8176
8050
8192
8048
8138
8088
8062
8164
7973
8226
7929
8245
7945
8216
8010
8138
8119
8046
8215
7963
8286
7959
8302
7994
8278
8080
8196
8172
8123
8230
8092
8219
8111
8164
8189
8070
8271
7986
8342
7950
8359
7959
8301
8018
8209
8116
8110
8187
8027
8229
8009
8225
8042
8140
8102
8063
8156
7994
8193
7975
8172
8015
8109
8119
8012
8213
7928
8276
7898
8324
7933
8294
8004
8217
8112
8144
8194
8096
8239
8102
8193
8158
8120
8223
8040
8305
7984
8329
7986
8280
8030
8209
8132
8114
8231
8016
8278
7975
8291
7988
8235
8042
8154
8117
8070
8161
8023
8157
8028
8101
8106
8017
8199
7933
8284
7891
8313
7902
8278
7968
8209
8085
8145
8190
8074
8245
8056
8263
8090
8193
8150
8105
8228
8043
8284
8025
8254
8060
8193
8146
8100
8242
8007
8333
7955
8342
7945
8305
8005
8221
8082
8128
8150
8053
8159
8043
8131
8078
8052
8151
7972
8231
7913
8279
7913
8252
7962
8183
8066
8101
8170
8024
8258
7997
8299
8024
8266
8085
8192
8174
8111
8238
8077
8242
8097
8197
8166
8104
8244
8003
8327
7946
8356
7930
8331
7983
8246
8071
8155
8148
8059
8199
8035
8197
8049
8125
8101
8039
8162
7966
8221
7939
8211
7974
8159
8070
8078
8180
7990
8275
7948
8324
7957
8313
8018
8248
8102
8162
8193
8103
8225
8095
8204
8148
8137
8227
8042
8312
7970
8346
7949
8330
7991
8255
8078
8150
8167
8066
8225
7999
8264
8013
8217
8047
8126
8105
8038
8148
7984
8166
7998
8132
8075
8062
8175
7967
8262
7910
8318
7899
8318
7961
8258
8050
8179
8159
8124
8224
8081
8236
8099
8185
8172
8100
8245
8018
8306
7994
8304
8012
8237
8092
8146
8193
8048
8270
7969
8310
7955
8293
7999
8219
8073
8120
8127
8049
8152
8024
8143
8066
8067
8148
7983
8228
7913
8294
7889
8298
7943
8253
8024
8177
8149
8098
8235
8045
8278
8046
8248
8098
8180
8177
8093
8247
8040
8255
8053
8216
8115
8140
8207
8033
8285
7963
8358
7934
8334
7962
8273
8034
8182
8124
8090
8164
8044
8166
8041
8112
8100
8031
8185
7962
8248
7922
8259
7944
8217
8007
8137
8128
8054
8236
7988
8309
7987
8307
8031
8251
8113
8180
8189
8100
8232
8077
8208
8117
8144
8197
8047
8284
7976
8352
7941
8355
7956
8293
8028
8210
8116
8104
8193
8038
8221
8027
8187
8062
8107
8114
8014
8156
7956
8197
7960
8173
8017
8110
8131
8014
8228
7940
8307
7928
8327
7960
8300
8047
8217
8148
8144
8204
8089
8228
8099
8178
8169
8097
8245
8017
8323
7973
8343
7977
8298
8034
8205
8132
8098
8217
8015
8275
7985
8272
8002
8207
8068
8106
8121
8036
8162
8006
8154
8033
8103
8124
8008
8221
7937
8299
7897
8322
7919
8293
8001
8230
8116
8152
8209
8089
8247
8082
8246
8115
8171
8194
8085
8267
8024
8297
8020
8269
8067
8193
8152
8092
8246
7995
8316
7948
8330
7964
8280
8015
8196
8094
8107
8159
8045
8156
8040
8102
8084
8031
8173
7946
8259
7904
8302
7914
8263
7974
8199
8087
8117
8195
8052
8274
8032
8295
8053
8249
8112
8149
8183
8085
8244
8056
8237
8086
8183
8166
8097
8253
7992
8325
7931
8353
7935
8326
7982
8233
8066
8141
8151
8051
8185
8030
8153
8053
8087
8107
7998
8190
7954
8256
7945
8232
7986
8177
8088
8085
8186
8000
8282
7969
8335
7984
8305
8048
8237
8139
8153
8199
8102
8241
8105
8197
8156
8116
8238
8017
8319
7953
8353
7942
8330
7982
8244
8069
8141
8160
8054
8223
8010
8227
8011
8185
8059
8092
8123
8011
8174
7977
8195
8003
8151
8091
8070
8195
7973
8281
7924
8328
7921
8334
7992
8267
8087
8194
8181
8111
8219
8080
8204
8109
8160
8198
8077
8272
8007
8315
7976
8311
8009
8246
8097
8150
8197
8054
8265
7982
8298
7969
8261
8005
8185
8080
8095
8137
8030
8151
8025
8130
8077
8058
8173
7983
8258
7922
8313
7905
8323
7960
8270
8059
8187
8164
8109
8233
8057
8267
8071
8223
8126
8143
8201
8071
8267
8032
8269
8048
8227
8112
8136
8208
8030
8290
7963
8340
7936
8318
7968
8249
8040
8162
8128
8072
8150
8031
8143
8058
8095
8135
8013
8213
7945
8273
7914
8271
7936
8224
8041
8150
8155
8074
8245
8016
8311
8011
8292
8058
8220
8125
8143
8199
8083
8248
8077
8217
8133
8149
8214
8047
8304
7964
8358
7932
8347
7946
8271
8017
8181
8110
8092
8173
8025
8194
8019
8144
8066
8069
8134
7996
8191
7956
8230
7974
8197
8047
8128
8147
8023
8249
7962
8322
7953
8343
7997
8297
8081
8207
8162
8130
8226
8095
8222
8117
8169
8188
8071
8260
7993
8328
7949
8330
7969
8277
8045
8191
8130
8089
8214
8002
8255
7987
8235
8010
8152
8068
8068
8131
8005
8163
7992
8160
8041
8104
8145
8012
8243
7944
8324
7917
8343
7956
8315
8035
8231
8133
8149
8213
8084
8234
8079
8207
8133
8134
8213
8061
8288
8006
8312
8010
8265
8066
8179
8156
8082
8247
7987
8310
7952
8309
7969
8243
8028
8155
8102
8068
8146
8024
8144
8045
8087
8119
8008
8197
7942
8291
7909
8323
7932
8283
8011
8215
8122
8133
8223
8064
8278
8048
8279
8072
8217
8140
8131
8216
8069
8267
8049
8236
8094
8173
8177
8077
8267
7976
8336
7927
8342
7934
8299
7998
8205
8090
8122
8158
8048
8163
8031
8129
8071
8067
8153
7981
8221
7940
8269
7938
8248
8006
8184
8114
8087
8223
8016
8302
7989
8328
8010
8290
8067
8203
8160
8126
8213
8087
8221
8099
8176
8176
8096
8265
8008
8344
7963
8369
7958
8328
7992
8223
8084
8120
8159
8030
8214
8007
8205
8016
8126
8066
8046
8148
7988
8200
7976
8198
8014
8143
8112
8063
8219
7977
8314
7940
8353
7961
8330
8028
8257
8125
8163
8192
8103
8225
8096
8200
8135
8126
8221
8040
8294
7986
8335
7977
8293
8009
8217
8103
8124
8189
8021
8260
7967
8285
7988
8239
8025
8131
8095
8053
8141
8010
8171
8030
8134
8114
8045
8206
7965
8293
7916
8341
7922
8326
7987
8257
8094
8178
8191
8107
8250
8066
8258
8089
8195
8164
8111
8229
8042
8284
8020
8268
8047
8207
8129
8114
8224
8008
8297
7945
8332
7936
8301
7993
8220
8060
8122
8122
8041
8145
8022
8120
8068
8063
8156
7987
8236
7919
8295
7922
8282
7982
8235
8084
8157
8195
8080
8267
8023
8313
8041
8279
8085
8197
8168
8108
8229
8065
8235
8071
8189
8140
8111
8229
8020
8317
7948
8361
7925
8330
7964
8247
8041
8150
8133
8068
8185
8019
8169
8031
8114
8083
8035
8156
7970
8236
7956
8241
7989
8192
8071
8110
8177
8024
8280
7976
8340
7974
8334
8028
8258
8105
8181
8194
8114
8233
8100
8208
8141
8143
8216
8040
8296
7971
8337
7944
8334
7978
8265
8060
8166
8146
8079
8222
8010
8238
7996
8198
8032
8121
8098
8037
8159
8000
8188
8011
8164
8078
8091
8179
7994
8264
7944
8344
7931
8352
7983
8291
8068
8213
8161
8137
8224
8083
8234
8100
8186
8161
8102
8243
8020
8297
7988
8304
8004
8257
8083
8165
8174
8066
8260
7982
8307
7956
8281
7982
8204
8043
8107
8107
8038
8143
8015
8129
8055
8084
8150
8005
8242
7934
8312
7911
8328
7950
8282
8038
8210
8157
8124
8239
8059
8282
8058
8258
8094
8187
8174
8099
8251
8042
8262
8044
8234
8107
8147
8183
8037
8275
7961
8331
7929
8335
7954
8269
8019
8179
8104
8076
8146
8026
8149
8044
8113
8099
8051
8199
7978
8267
7940
8288
7955
8245
8030
8178
8147
8097
8256
8035
8330
8006
8319
8045
8265
8100
8175
8179
8101
8231
8072
8214
8119
8162
8194
8063
8280
7984
8344
7930
8346
7935
8283
8005
8198
8103
8105
8173
8024
8202
8007
8165
8031
8098
8108
8027
8181
7979
8219
7981
8199
8033
8142
8151
8060
8259
7988
8337
7961
8365
7996
8326
8061
8239
8145
8151
8206
8092
8223
8089
8168
8162
8093
8239
8015
8317
7963
8332
7956
8281
8020
8207
8118
8106
8209
8012
8263
7979
8260
7993
8195
8042
8096
8111
8026
8163
8017
8173
8047
8123
8140
8031
8231
7963
8319
7920
8355
7949
8326
8022
8255
8124
8165
8196
8088
8248
8076
8239
8113
8169
8189
8082
8265
8023
8299
8015
8268
8048
8185
8141
8095
8231
7993
8302
7947
8323
7958
8281
8001
8176
8067
8079
8121
8028
8148
8035
8112
8099
8044
8190
7975
8280
7931
8320
7936
8298
8006
8234
8120
8150
8219
8081
8284
8031
8300
8049
8248
8107
8167
8190
8090
8248
8060
8235
8079
8185
8165
8095
8246
7994
8329
7933
8341
7914
8306
7975
8227
8058
8119
8129
8039
8169
8012
8149
8053
8092
8118
8013
8205
7962
8257
7955
8244
7999
8191
8100
8110
8213
8022
8307
7987
8340
7999
8314
8051
8233
8137
8154
8205
8099
8236
8098
8194
8150
8110
8235
8021
8319
7949
8345
7938
8331
7982
8242
8076
8146
8164
8050
8218
7997
8221
7997
8152
8046
8079
8129
8019
8182
7991
8209
8017
8161
8103
8083
8210
7999
8320
7950
8365
7963
8365
8026
8282
8102
8188
8178
8111
8233
8093
8216
8114
8158
8197
8069
8272
8008
8319
7974
8299
8013
8238
8099
8139
8197
8037
8264
7975
8297
7962
8258
7998
8172
8066
8080
8125
8015
8137
8014
8130
8081
8062
8179
7983
8277
7930
8345
7937
8351
7987
8286
8085
8197
8182
8110
8242
8060
8276
8073
8228
8125
8148
8205
8069
8262
8029
8265
8051
8214
8119
8125
8206
8016
8290
7957
8339
7937
8320
7963
8232
8026
8137
8102
8050
8135
8031
8148
8067
8099
8148
8024
8224
7952
8289
7935
8287
7972
8248
8076
8173
8189
8094
8275
8023
8319
8020
8300
8064
8220
8131
8141
8208
8082
8225
8075
8200
8134
8133
8211
8031
8298
7957
8348
7933
8342
7957
8266
8025
8172
8111
8067
8170
8008
8187
8014
8141
8072
8073
8146
8005
8225
7972
8237
7995
8201
8069
8135
8185
8051
8283
7985
8353
7972
8350
8006
8294
8079
8201
8170
8122
8211
8095
8215
8111
8159
8192
8067
8272
7992
8332
7950
8330
7975
8265
8027
8170
8131
8080
8212
7994
8239
7967
8229
8007
8140
8066
8065
8135
8017
8188
8011
8172
8071
8111
8167
8015
8272
7960
8353
7944
8372
7989
8327
8056
8236
8144
8140
8205
8081
8233
8081
8204
8132
8126
8214
8048
8288
8009
8305
8009
8249
8065
8152
8150
8058
8240
7972
8309
7941
8303
7961
8227
8013
8120
8085
8060
8147
8039
8155
8064
8105
8136
8027
8222
7948
8305
7916
8326
7946
8298
8047
8235
8157
8140
8236
8058
8280
8044
8290
8084
8219
8152
8128
8215
8064
8257
8043
8225
8097
8160
8177
8068
8276
7975
8339
7933
8346
7940
8282
7995
8190
8073
8103
8146
8029
8151
8022
8132
8080
8066
8166
7997
8252
7953
8279
7963
8258
8039
8197
8154
8114
8259
8033
8337
7998
8335
8015
8285
8082
8202
8168
8125
8212
8083
8218
8105
8177
8187
8083
8261
7991
8333
7934
8344
7933
8296
7998
8222
8093
8115
8163
8017
8198
7980
8176
8008
8122
8083
8052
8153
7995
8213
7989
8207
8040
8154
8136
8082
8258
8000
8346
7964
8370
7977
8335
8041
8249
8124
8165
8196
8102
8226
8097
8198
8127
8114
8221
8044
8299
7979
8326
7966
8283
8017
8213
8118
8116
8208
8014
8255
7956
8268
7960
8206
8014
8119
8086
8056
8155
8028
8180
8053
8143
8127
8060
8224
7972
8310
7926
8354
7949
8346
8014
8271
8110
8181
8208
8109
8253
8060
8254
8089
8189
8163
8108
8227
8046
8276
8014
8260
8049
8193
8139
8099
8226
8001
8304
7951
8331
7942
8288
7977
8196
8050
8091
8117
8038
8147
8036
8140
8087
8076
8178
7995
8261
7942
8311
7948
8307
8011
8250
8115
8162
8214
8075
8285
8020
8306
8030
8277
8090
8195
8173
8110
8229
8075
8242
8078
8192
8154
8108
8242
8014
8323
7937
8345
7918
8321
7966
8230
8036
8132
8124
8045
8167
8010
8164
8029
8119
8105
8057
8193
7993
8260
7974
8248
8012
8208
8115
8136
8237
8058
8318
7995
8362
7986
8329
8020
8244
8103
8173
8190
8108
8224
8088
8194
8140
8131
8215
8037
8299
7967
8345
7946
8325
7976
8248
8063
8148
8154
8043
8212
7971
8219
7968
8175
8026
8110
8108
8042
8167
8014
8192
8030
8169
8109
8097
8217
8013
8322
7960
8372
7957
8359
7998
8290
8087
8205
8174
8129
8230
8088
8250
8116
8191
8178
8099
8248
8019
8294
7988
8286
8019
8230
8091
8127
8182
8028
8263
7955
8298
7930
8259
7960
8178
8044
8095
8121
8054
8161
8035
8146
8079
8077
8173
8004
8268
7948
8339
7939
8342
7992
8296
8091
8208
8177
8106
8246
8044
8283
8046
8254
8104
8180
8186
8096
8244
8048
8254
8050
8207
8116
8135
8202
8024
8291
7954
8340
7923
8324
7950
8243
8015
8151
8082
8054
8147
8011
8150
8045
8119
8126
8049
8210
7986
8290
7961
8310
8004
8265
8099
8186
8198
8091
8284
8017
8331
7998
8312
8035
8240
8113
8166
8184
8093
8227
8080
8205
8128
8135
8201
8048
8291
7969
8344
7926
8340
7956
8272
8021
8180
8109
8076
8175
7994
8198
7996
8160
8041
8096
8127
8034
8203
7998
8227
8004
8207
8090
8147
8198
8065
8301
7990
8360
7963
8365
7994
8312
8065
8223
8162
8146
8216
8090
8226
8097
8164
8169
8084
8254
8006
8322
7973
8323
7978
8269
8054
8180
8137
8064
8209
7976
8248
7948
8235
7967
8164
8040
8089
8126
8037
8169
8031
8175
8077
8117
8174
8037
8276
7975
8366
7955
8381
7987
8341
8052
8243
8149
8141
8210
8073
8246
8068
8235
8116
8149
8190
8073
8264
8019
8278
8019
8247
8079
8167
8162
8064
8254
7975
8316
7924
8307
7931
8230
7991
8145
8069
8069
8141
8036
8157
8053
8123
8131
8051
8215
7986
8310
7960
8342
7983
8313
8064
8238
8161
8151
8249
8055
8294
8018
8289
8044
8231
8114
8146
8195
8085
8244
8059
8217
8096
8159
8170
8066
8261
7974
8331
7923
8344
7935
8287
7985
8195
8061
8094
8133
8021
8164
8010
8151
8064
8101
8144
8023
8234
7980
8272
7987
8255
8063
8204
8163
8122
8277
8038
8348
7987
8351
7991
8302
8058
8222
8147
8148
8213
8097
8215
8098
8173
8162
8084
8234
8000
8315
7948
8345
7946
8307
8000
8213
8088
8111
8161
8006
8211
7980
8214
8002
8158
8060
8085
8136
8030
8200
8011
8206
8052
8163
8148
8087
8263
8016
8359
7972
8379
7968
8349
8020
8257
8107
8171
8184
8098
8228
8080
8210
8116
8142
8199
8058
8273
7995
8312
7984
8280
8022
8211
8115
8114
8204
8001
8267
7952
8284
7939
8226
8000
8160
8071
8071
8139
8035
8163
8042
8131
8118
8069
8226
8011
8317
7957
8364
7959
8355
8019
8289
8121
8192
8208
8113
8258
8050
8268
8066
8221
8128
8137
8208
8065
8266
8034
8250
8057
8192
8134
8100
8220
7997
8297
7941
8333
7916
8296
7958
8204
8029
8113
8104
8035
8145
8025
8138
8074
8096
8161
8023
8246
7974
8321
7977
8323
8030
8264
8122
8177
8222
8075
8295
8013
8325
8015
8303
8066
8222
8138
8135
8211
8085
8226
8084
8198
8150
8122
8228
8021
8315
7951
8352
7924
8329
7947
8233
8013
8134
8112
8034
8166
7985
8169
8006
8138
8069
8068
8161
8019
8242
7996
8256
8033
8216
8114
8140
8217
8055
8319
7986
8366
7974
8351
8022
8279
8092
8198
8172
8111
8210
8081
8206
8122
8151
8197
8052
8281
7985
8327
7953
8325
7983
8255
8056
8147
8138
8037
8209
7963
8233
7954
8208
8004
8147
8082
8069
8151
8021
8190
8029
8180
8106
8126
8214
8036
8318
7979
8381
7959
8376
7990
8310
8078
8214
8163
8130
8231
8082
8249
8082
8200
8138
8117
8211
8037
8278
8002
8290
8010
8231
8081
8142
8178
8043
8253
7951
8296
7915
8282
7941
8203
8020
8133
8097
8062
8148
8033
8148
8078
8106
8161
8039
8261
7981
8343
7965
8368
8001
8314
8079
8218
8168
8128
8254
8058
8290
8032
8277
8069
8203
8145
8121
8233
8070
8259
8064
8230
8117
8148
8183
8028
8255
7934
8318
7900
8310
7912
8251
7990
8162
8064
8066
8144
8027
8166
8033
8138
8102
8077
8192
8020
8273
7981
8302
8000
8277
8085
8201
8183
8109
8288
8026
8342
7993
8345
8020
8283
8075
8188
8162
8111
8212
8084
8202
8096
8155
8185
8058
8262
7979
8328
7934
8340
7939
8276
7988
8177
8091
8086
8162
8003
8206
7980
8190
8025
8141
8103
8064
8176
8021
8230
8021
8229
8095
8175
8194
8090
8296
8012
8376
7976
8392
7986
8329
8042
8243
8136
8154
8200
8089
8217
8082
8182
8137
8115
8235
8036
8303
7983
8320
7977
8273
8026
8191
8118
8076
8199
7978
8249
7928
8252
7955
8206
8024
8131
8097
8057
8161
8033
8184
8072
8149
8164
8072
8267
8003
8359
7967
8386
7977
8351
8031
8253
8124
8160
8215
8083
8256
8054
8256
8091
8188
8151
8098
8239
8044
8269
8023
8247
8072
8186
8151
8086
8237
7974
8291
7917
8308
7911
8250
7967
8178
8055
8093
8146
8048
8162
8048
8137
8109
8087
8210
8025
8309
7983
8352
7983
8332
8041
8250
8131
8144
8228
8059
8289
8013
8303
8021
8264
8082
8181
8170
8109
8236
8066
8224
8075
8173
8158
8089
8242
7985
8322
7918
8339
7912
8299
7959
8213
8037
8116
8118
8026
8178
8005
8172
8047
8134
8130
8066
8212
8018
8289
8016
8285
8058
8227
8159
8139
8247
8029
8328
7982
8361
7979
8324
8034
8249
8112
8163
8187
8094
8222
8092
8191
8143
8103
8216
8030
8300
7967
8336
7942
8299
7973
8222
8053
8110
8140
8006
8197
7960
8222
7978
8189
8037
8122
8119
8056
8177
8019
8212
8061
8190
8149
8119
8257
8041
8361
7984
8391
7968
8362
8008
8295
8102
8203
8183
8122
8227
8080
8242
8097
8170
8169
8079
8231
8006
8291
7988
8278
8015
8220
8096
8119
8179
8006
8253
7937
8284
7925
8257
7964
8179
8040
8095
8126
8055
8169
8054
8160
8105
8107
8212
8041
8318
7991
8381
7965
8358
8004
8276
8088
8188
8191
8109
8266
8046
8288
8052
8252
8109
8181
8184
8092
8247
8048
8243
8046
8198
8122
8118
8210
8008
8284
7923
8319
7895
8285
7924
8214
8008
8141
8104
8052
8162
8030
8163
8057
8115
8129
8051
8237
8005
8309
7988
8323
8036
8269
8123
8179
8215
8083
8298
8014
8344
7997
8316
8039
8246
8120
8162
8185
8087
8211
8078
8192
8135
8120
8205
8026
8289
7953
8340
7935
8324
7944
8240
8012
8137
8107
8032
8172
7994
8208
8001
8172
8061
8109
8139
8044
8233
8028
8255
8049
8228
8137
8163
8238
8065
8330
7989
8379
7970
8365
8001
8293
8080
8211
8167
8130
8212
8086
8219
8108
8158
8171
8067
8245
7998
8305
7959
8303
7982
8236
8054
8134
8139
8027
8209
7947
8243
7935
8238
7986
8183
8064
8092
8140
8047
8194
8053
8183
8119
8138
8224
8062
8337
8002
8393
7969
8382
7991
8314
8071
8218
8159
8116
8223
8059
8244
8064
8218
8112
8141
8191
8057
8255
8018
8256
8010
8211
8091
8130
8176
8022
8254
7935
8302
7896
8275
7924
8216
8008
8150
8099
8071
8166
8048
8163
8073
8120
8155
8059
8248
8003
8337
7987
8358
8011
8305
8088
8214
8185
8104
8264
8028
8310
8021
8300
8061
8235
8129
8137
8194
8079
8243
8060
8203
8116
8133
8192
8034
8280
7951
8328
7902
8319
7920
8249
7985
8155
8080
8067
8159
8019
8191
8028
8162
8082
8097
8170
8039
8265
8020
8307
8047
8278
8118
8192
8213
8092
8300
8005
8355
7980
8353
8004
8297
8074
8203
8157
8125
8208
8089
8209
8107
8156
8179
8064
8254
7983
8324
7955
8336
7956
8261
8014
8162
8096
8048
8178
7970
8217
7966
8226
8005
8170
8091
8100
8171
8047
8222
8049
8217
8113
8168
8215
8088
8312
8001
8373
7959
8385
7979
8332
8054
8240
8138
8143
8207
8081
8231
8081
8197
8128
8127
8196
8036
8267
7991
8293
7989
8244
8047
8150
8127
8043
8213
7949
8263
7914
8280
7939
8222
8019
8152
8092
8072
8153
8049
8179
8083
8149
8178
8079
8276
8020
8364
7978
8383
7993
8343
8060
8233
8144
8132
8234
8052
8274
8040
8279
8070
8209
8138
8116
8202
8049
8232
8031
8213
8083
8151
8169
8040
8251
7949
8305
7899
8317
7906
8252
7968
8170
8062
8081
8156
8038
8188
8054
8160
8110
8098
8208
8039
8306
8015
8338
8016
8298
8087
8225
8175
8122
8263
8028
8331
7996
8333
8016
8293
8083
8201
8158
8118
8210
8079
8207
8092
8156
8173
8065
8257
7974
8320
7928
8329
7920
8265
7970
8173
8069
8082
8154
7998
8203
7992
8205
8037
8150
8108
8084
8203
8031
8262
8044
8258
8107
8194
8201
8113
8295
8008
8364
7968
8379
7981
8336
8048
8247
8136
8156
8192
8089
8214
8085
8192
8145
8112
8220
8038
8303
7978
8311
7967
8264
8009
8161
8092
8060
8180
7971
8247
7933
8252
7959
8205
8029
8137
8117
8070
8178
8058
8206
8106
8186
8200
8116
8299
8017
8363
7952
8369
7961
8331
8022
8243
8122
8147
8202
8075
8255
8058
8245
8081
8180
8149
8094
8218
8034
8264
8018
8244
8057
8167
8143
8058
8226
7959
8284
7901
8299
7909
8247
7978
8178
8067
8096
8150
8056
8170
8060
8164
8131
8102
8227
8032
8322
7995
8360
8006
8318
8057
8240
8143
8138
8243
8052
8298
8016
8317
8026
8265
8083
8172
8164
8091
8223
8063
8215
8082
8157
8163
8078
8244
7970
8311
7909
8328
7905
8269
7952
8191
8035
8099
8140
8030
8193
8018
8190
8066
8144
8151
8087
8245
8032
8301
8034
8289
8095
8228
8179
8125
8262
8027
8344
7978
8368
7987
8325
8039
8240
8130
8153
8193
8096
8227
8088
8183
8157
8105
8226
8021
8298
7950
8324
7931
8268
7964
8185
8063
8094
8157
8013
8236
7972
8237
7986
8197
8056
8127
8133
8066
8210
8054
8236
8089
8196
8170
8121
8271
8018
8352
7962
8374
7951
8344
8003
8257
8099
8169
8186
8093
8223
8067
8227
8094
8145
8166
8076
8249
8013
8287
7992
8264
8029
8197
8108
8088
8197
7977
8255
7920
8284
7923
8254
7981
8173
8067
8102
8142
8059
8198
8082
8187
8159
8129
8247
8048
8333
7986
8372
7973
8344
8011
8266
8115
8179
8210
8094
8272
8040
8295
8049
8243
8092
8149
8177
8073
8231
8042
8234
8061
8185
8136
8085
8211
7973
8273
7896
8308
7885
8278
7930
8201
8020
8121
8121
8044
8177
8036
8176
8082
8137
8174
8081
8273
8027
8326
8013
8329
8055
8253
8137
8156
8239
8068
8317
8002
8346
7991
8310
8034
8229
8105
8148
8194
8092
8220
8087
8188
8136
8108
8216
8001
8294
7940
8323
7910
8300
7945
8214
8019
8121
8123
8035
8196
7996
8224
8015
8192
8079
8127
8181
8074
8261
8043
8261
8076
8230
8159
8142
8251
8033
8335
7969
8375
7962
8358
8010
8280
8076
8181
8160
8102
8212
8088
8208
8105
8154
8184
8057
8261
7990
8309
7962
8279
7984
8213
8060
8117
8153
8010
8223
7951
8262
7946
8253
8007
8184
8084
8108
8156
8065
8209
8074
8196
8154
8146
8249
8054
8341
7990
8380
7961
8372
8005
8301
8095
8210
8180
8120
8238
8055
8260
8058
8216
8115
8144
8200
8065
8251
8013
8255
8026
8207
8094
8106
8165
7982
8241
7907
8286
7890
8281
7937
8219
8021
8146
8122
8074
8179
8053
8162
8091
8145
8190
8082
8297
8026
8355
7990
8353
8019
8289
8101
8192
8205
8103
8280
8030
8328
8024
8294
8044
8214
8121
8130
8200
8069
8220
8061
8187
8116
8119
8197
8015
8265
7932
8318
7891
8306
7925
8242
7994
8152
8097
8061
8160
8005
8181
8020
8155
8095
8113
8200
8059
8291
8034
8318
8062
8279
8130
8180
8215
8088
8307
8000
8368
7983
8347
7999
8286
8070
8185
8151
8114
8204
8079
8204
8108
8154
8186
8060
8253
7974
8311
7920
8301
7926
8231
7993
8140
8098
8032
8188
7973
8226
7969
8235
8017
8179
8099
8096
8188
8065
8251
8078
8242
8151
8172
8233
8084
8318
7993
8376
7959
8380
7983
8321
8053
8232
8151
8140
8208
8070
8227
8072
8187
8124
8111
8199
8035
8273
7997
8289
7990
8231
8046
8131
8128
8014
8214
7940
8270
7915
8283
7953
8221
8018
8149
8113
8089
8189
8082
8211
8116
8175
8208
8089
8301
8019
8367
7974
8370
7984
8318
8062
8236
8158
8129
8232
8052
8274
8033
8269
8062
8194
8130
8110
8210
8056
8238
8044
8218
8099
8141
8153
8017
8233
7932
8291
7885
8305
7910
8259
7982
8177
8069
8088
8147
8043
8191
8050
8170
8116
8100
8216
8051
8308
8007
8333
8017
8300
8088
8227
8191
8131
8277
8047
8348
8005
8345
8023
8295
8082
8201
8167
8117
8207
8076
8204
8093
8154
8156
8049
8232
7962
8304
7905
8312
7905
8261
7959
8172
8067
8096
8161
8020
8209
7998
8212
8055
8184
8147
8119
8242
8061
8284
8059
8263
8107
8204
8196
8106
8281
8018
8363
7976
8378
7978
8331
8024
8242
8118
8152
8187
8091
8211
8078
8177
8120
8103
8215
8038
8294
7975
8322
7954
8249
7979
8155
8065
8058
8159
7966
8225
7942
8269
7968
8219
8036
8164
8127
8092
8201
8080
8224
8107
8197
8196
8115
8286
8019
8362
7976
8391
7971
8356
8028
8269
8124
8167
8199
8085
8245
8056
8241
8074
8179
8140
8092
8218
8018
8253
8003
8236
8029
8158
8103
8058
8198
7960
8273
7908
8300
7909
8266
7963
8186
8060
8122
8154
8074
8188
8083
8197
8159
8152
8255
8068
8332
8003
8357
7987
8343
8034
8265
8126
8156
8214
8054
8275
8011
8295
8007
8251
8077
8187
8178
8113
8237
8076
8240
8085
8188
8150
8087
8223
7975
8280
7900
8311
7889
8276
7943
8216
8033
8131
8145
8063
8201
8034
8204
8070
8154
8145
8098
8253
8037
8307
8023
8298
8082
8257
8149
8140
8242
8041
8316
7983
8356
7974
8334
8030
8246
8096
8159
8175
8086
8182
8067
8162
8110
8103
8197
8002
8263
7933
8305
7912
8270
7938
8211
8048
8139
8158
8064
8236
7985
8220
7973
8200
8044
8138
8136
8080
8237
8082
8282
8101
8242
8183
8177
8282
8061
8357
7988
8388
7963
8373
7998
8292
8083
8199
8170
8122
8217
8072
8237
8093
8153
8143
8078
8225
7998
8274
7958
8259
7980
8199
8047
8099
8144
7994
8221
7934
8285
7927
8269
7975
8195
8067
8148
8172
8100
8222
8089
8207
8151
8156
8235
8058
8329
7990
8373
7969
8362
7993
8292
8083
8205
8180
8110
8246
8042
8269
8030
8236
8086
8171
8172
8084
8238
8037
8246
8042
8202
8101
8104
8165
7985
8252
7921
8308
7896
8296
7925
8238
8007
8153
8104
8074
8166
8055
8202
8097
8175
8193
8117
8280
8037
8334
7997
8336
8020
8287
8106
8196
8197
8094
8276
8017
8326
7996
8314
8038
8246
8098
8164
8175
8084
8202
8054
8187
8097
8130
8188
8026
8258
7935
8316
7895
8310
7920
8254
8002
8168
8102
8075
8180
8021
8215
8024
8207
8087
8168
8200
8115
8298
8080
8310
8059
8249
8112
8175
8207
8078
8288
7978
8353
7950
8352
7983
8303
8056
8213
8142
8127
8190
8075
8224
8106
8180
8171
8074
8222
7981
8283
7926
8291
7931
8242
8005
8159
8118
8065
8196
7979
8256
7973
8269
8009
8204
8079
8131
8164
8094
8253
8089
8242
8145
8185
8214
8090
8290
7984
8352
7938
8365
7963
8322
8028
8240
8140
8145
8196
8056
8213
8042
8208
8098
8151
8196
8081
8266
8020
8285
7996
8224
8031
8141
8122
8039
8217
7946
8282
7917
8305
7947
8272
8022
8196
8112
8112
8182
8094
8243
8130
8197
8182
8106
8262
8023
8330
7974
8360
7994
8347
8074
8257
8157
8145
8232
8050
8285
8022
8281
8035
8218
8094
8132
8179
8062
8237
8043
8204
8055
8129
8134
8026
8221
7935
8281
7882
8303
7896
8261
7967
8194
8058
8115
8156
8063
8219
8071
8233
8125
8161
8200
8083
8301
8049
8338
8040
8308
8088
8227
8160
8117
8245
8015
8322
7976
8341
7987
8301
8053
8220
8142
8152
8231
8115
8248
8117
8183
8157
8072
8209
7966
8254
7895
8295
7901
8266
7961
8194
8066
8110
8171
8025
8227
7994
8243
8029
8216
8115
8162
8217
8099
8284
8078
8267
8095
8198
8181
8114
8271
8014
8342
7958
8375
7961
8339
8006
8243
8086
8156
8169
8086
8219
8073
8193
8094
8122
8185
8043
8250
7970
8285
7961
8255
7982
8175
8070
8072
8173
7991
8260
7946
8283
7954
8266
8021
8204
8120
8124
8199
8085
8238
8117
8215
8197
8137
8259
8030
8355
7989
8385
7963
8349
7995
8270
8104
8178
8199
8102
8263
8056
8279
8070
8211
8125
8131
8198
8059
8246
8012
8221
8016
8155
8090
8052
8179
7965
8270
7912
8325
7921
8310
7975
8231
8054
8143
8138
8072
8197
8085
8209
8123
8151
8202
8065
8289
8007
8349
8011
8358
8048
8275
8137
8173
8217
8071
8286
8001
8311
7999
8283
8046
8198
8120
8113
8197
8070
8213
8066
8169
8113
8069
8194
7992
8282
7930
8326
7903
8297
7938
8233
8030
8147
8131
8054
8198
8033
8227
8062
8198
8131
8131
8223
8044
8263
8029
8293
8075
8245
8152
8156
8238
8040
8300
7950
8349
7965
8354
8026
8290
8112
8192
8184
8122
8243
8102
8214
8126
8142
8188
8033
8240
7936
8278
7894
8252
7926
8198
8018
8129
8157
8054
8232
7992
8281
7992
8257
8043
8185
8119
8106
8206
8087
8259
8092
8221
8157
8149
8245
8058
8353
8002
8387
7954
8364
7983
8288
8060
8206
8165
8123
8214
8048
8218
8066
8202
8142
8121
8221
8024
8252
7963
8224
7962
8172
8048
8088
8143
8006
8246
7929
8295
7915
8280
7959
8218
8052
8158
8155
8110
8239
8110
8240
8165
8191
8246
8124
8337
8022
8367
7959
8333
7966
8279
8065
8201
8173
8103
8245
8037
8295
8038
8276
8066
8186
8129
8094
8196
8037
8217
8037
8204
8103
8110
8163
7986
8235
7897
8285
7874
8296
7919
8250
7997
8163
8101
8099
8204
8093
8263
8121
8220
8187
8159
8268
8063
8308
7996
8302
8013
8274
8099
8190
8189
8087
8281
8011
8343
7999
8348
8050
8313
8114
8213
8187
8121
8216
8069
8183
8066
8074
8116
7992
8216
7931
8295
7903
8321
7942
8274
8024
8203
8152
8136
8238
8042
8238
7995
8190
8026
8132
8107
8086
8209
8054
8279
8068
8257
8141
8192
8227
8103
8309
7996
8378
7971
8386
7995
8320
8047
8212
8124
8124
8181
8070
8203
8075
8175
8125
8080
8203
7996
8255
7944
8275
7933
8216
7985
8134
8098
8040
8192
7954
8248
7940
8287
8000
8285
8124
8240
8228
8154
8251
8089
8214
8124
8167
8211
8117
8334
8034
8374
7959
8360
7937
8272
8002
8228
8137
8171
8230
8073
8255
8049
8240
8066
8153
8136
8074
8215
8013
8226
7994
8204
8024
8143
8147
8061
8243
7956
8312
7931
8354
7956
8284
8001
8204
8120
8150
8184
8085
8211
8088
8188
8170
8137
8246
8034
8305
7975
8328
7975
8296
8074
8275
8186
8154
8240
8020
8281
7996
8297
8010
8237
8078
8172
8159
8086
8184
8046
8199
8065
8132
8130
8031
8214
7953
8299
7890
8309
7898
8275
7955
8200
8069
8121
8162
8065
8234
8060
8240
8099
8190
8192
8123
8289
8073
8323
8046
8293
8109
8254
8192
8123
8251
8005
8324
7960
8353
7973
8308
8030
8236
8134
8168
8190
8092
8221
8084
8174
8134
8075
8190
7972
8245
7904
8280
7901
8253
7957
8182
8064
8111
8179
8030
8249
7985
8258
8009
8225
8082
8174
8187
8100
8256
8096
8266
8115
8201
8167
8100
8256
8019
8349
7957
8385
7961
8364
8018
8266
8095
8160
8170
8085
8222
8067
8233
8123
8190
8177
8066
8213
7985
8280
7978
8250
7998
8176
8073
8058
8153
7958
8246
7935
8301
7947
8285
8016
8230
8112
8165
8205
8107
8237
8100
8196
8149
8128
8237
8031
8326
7982
8373
7980
8353
8001
8267
8110
8200
8242
8125
8285
8037
8270
8014
8201
8071
8130
8143
8058
8207
8019
8212
8027
8154
8104
8070
8189
7953
8239
7867
8290
7897
8321
7974
8254
8059
8167
8156
8092
8218
8098
8246
8136
8205
8226
8116
8300
8049
8334
8010
8323
8041
8258
8123
8162
8205
8062
8288
7993
8327
7979
8297
8025
8217
8102
8135
8172
8068
8198
8065
8160
8089
8073
8167
7971
8250
7917
8310
7900
8297
7928
8228
8030
8153
8137
8081
8224
8035
8263
8057
8248
8126
8184
8210
8101
8286
8077
8311
8115
8273
8166
8152
8212
8020
8290
7965
8365
7976
8394
8028
8310
8076
8182
8129
8074
8170
8049
8174
8082
8120
8151
8039
8225
7965
8276
7930
8268
7955
8211
8050
8137
8154
8034
8234
7974
8284
7970
8280
8032
8234
8126
8163
8244
8145
8281
8103
8210
8145
8152
8238
8059
8328
7988
8367
7957
8369
7983
8302
8066
8205
8153
8116
8225
8042
8238
8041
8197
8090
8115
8181
8065
8250
7990
8227
7974
8159
8030
8087
8155
8007
8247
7936
8311
7916
8307
7965
8265
8051
8188
8139
8119
8234
8122
8243
8133
8196
8224
8135
8340
8063
8372
7993
8350
8007
8295
8079
8186
8151
8084
8244
8028
8312
8021
8295
8034
8194
8080
8083
8122
8008
8159
8021
8169
8071
8097
8150
7987
8233
7908
8300
7892
8321
7939
8281
8017
8196
8114
8114
8202
8072
8263
8099
8244
8146
8171
8230
8082
8301
8043
8317
8026
8262
8104
8211
8220
8112
8284
7990
8329
7949
8320
7967
8248
8033
8186
8149
8149
8252
8133
8232
8074
8082
8067
7968
8159
7901
8255
7903
8315
7952
8269
8004
8167
8109
8098
8218
8030
8267
8014
8280
8070
8242
8175
8193
8277
8144
8313
8111
8268
8137
8188
8211
8101
8312
8018
8381
7967
8387
7981
8328
8029
8229
8106
8119
8159
8029
8183
8048
8185
8098
8103
8174
8009
8217
7938
8237
7945
8222
8008
8156
8113
8060
8216
7985
8281
7949
8304
7973
8268
8053
8202
8165
8163
8251
8123
8265
8160
8215
8219
8122
8276
7998
8328
7960
8359
7959
8311
8019
8230
8109
8138
8214
8068
8259
8036
8277
8066
8203
8116
8103
8186
8027
8204
7991
8168
8005
8112
8085
8008
8206
7946
8285
7919
8354
7975
8350
8043
8247
8104
8124
8146
8060
8212
8110
8263
8187
8172
8233
8062
8311
8029
8355
8012
8319
8066
8245
8144
8143
8246
8048
8302
7997
8331
8010
8279
8069
8205
8125
8089
8190
8066
8198
8053
8123
8105
8036
8192
7953
8267
7914
8346
7931
8289
7934
8172
8007
8100
8158
8071
8263
8078
8292
8111
8229
8174
8146
8252
8083
8314
8063
8283
8096
8225
8158
8117
8242
8021
8333
7971
8368
7963
8342
8011
8243
8081
8159
8170
8091
8212
8092
8204
8148
8123
8177
7972
8185
7894
8259
7920
8258
7962
8201
8054
8098
8150
8009
8236
7966
8273
7995
8277
8080
8223
8174
8131
8231
8088
8250
8122
8238
8216
8184
8281
8043
8338
7955
8367
7942
8367
8027
8321
8106
8177
8142
8067
8196
8028
8200
8052
8152
8101
8070
8184
8003
8252
7993
8253
8009
8201
8092
8092
8158
7978
8255
7947
8333
7949
8316
7998
8246
8086
8196
8197
8137
8263
8135
8240
8171
8170
8238
8070
8310
7998
8351
7965
8335
7997
8273
8082
8181
8189
8092
8264
8033
8311
8047
8274
8059
8166
8100
8049
8143
7984
8160
7991
8144
8087
8092
8187
7986
8266
7909
8291
7867
8290
7934
8254
8032
8185
8157
8132
8239
8117
8276
8118
8206
8167
8125
8259
8057
8310
8015
8320
8027
8242
8092
8169
8217
8084
8299
8014
8382
8021
8364
8051
8284
8075
8119
8102
8045
8148
8032
8156
8072
8078
8141
8001
8250
7960
8323
7912
8305
7928
8241
8012
8166
8141
8099
8237
8043
8280
8042
8264
8091
8212
8197
8141
8265
8065
8248
8067
8233
8132
8162
8226
8075
8317
7998
8389
7971
8396
8017
8345
8065
8202
8119
8107
8195
8065
8198
8067
8139
8110
8085
8237
8017
8283
7951
8244
7935
8191
8000
8115
8112
8039
8226
7984
8304
7964
8297
8008
8278
8125
8208
8191
8126
8238
8092
8220
8146
8187
8218
8072
8283
7973
8337
7943
8368
7983
8319
8069
8244
8149
8131
8211
8034
8224
8018
8226
8074
8146
8126
8048
8174
7985
8203
7974
8179
8044
8134
8159
8036
8254
7984
8342
7946
8343
7958
8300
8050
8249
8170
8179
8240
8120
8249
8108
8189
8164
8104
8249
8054
8351
8012
8362
8010
8311
8070
8247
8171
8112
8231
7976
8223
7949
8286
8016
8240
8069
8140
8131
8057
8168
8020
8159
8041
8100
8124
8025
8236
7953
8316
7920
8325
7919
8290
7994
8210
8104
8144
8217
8087
8275
8100
8282
8128
8199
8212
8120
8276
8050
8291
8029
8280
8108
8207
8171
8096
8264
8005
8329
7946
8337
7972
8313
8036
8232
8126
8143
8175
8055
8167
8056
8155
8130
8056
8202
7996
8284
7944
8309
7934
8273
7980
8178
8060
8066
8175
8027
8280
8023
8322
8062
8273
8103
8166
8165
8087
8243
8084
8297
8186
8255
8217
8123
8273
7988
8322
7944
8357
7917
8300
7968
8211
8073
8139
8187
8094
8237
8059
8207
8077
8126
8138
8046
8210
7970
8229
7948
8231
8009
8183
8115
8099
8220
7997
8291
7952
8334
7971
8318
8061
8259
8157
8182
8212
8111
8238
8107
8190
8163
8125
8259
8063
8361
8019
8405
7984
8321
7966
8196
8062
8128
8189
8076
8279
8040
8295
8050
8238
8099
8140
8153
8051
8191
7998
8188
8017
8135
8096
8040
8199
7965
8281
7925
8341
7923
8324
7985
8258
8098
8192
8192
8133
8242
8077
8206
8104
8169
8199
8096
8285
8046
8353
8021
8323
8049
8250
8135
8147
8212
8030
8276
7967
8313
7963
8280
8007
8198
8121
8181
8204
8083
8197
8044
8121
8065
8041
8149
7938
8230
7915
8320
7919
8324
7967
8242
8074
8181
8190
8114
8257
8039
8240
8030
8226
8137
8174
8208
8097
8288
8074
8309
8106
8231
8132
8122
8231
8029
8319
7963
8378
7973
8362
8000
8271
8068
8191
8172
8104
8222
8091
8181
8058
8070
8091
7986
8186
7941
8267
7928
8266
7970
8213
8069
8134
8171
8056
8268
8000
8325
8007
8320
8069
8251
8153
8168
8218
8118
8265
8114
8234
8176
8156
8220
8022
8304
7960
8374
7963
8368
7984
8281
8060
8188
8147
8111
8225
8050
8237
8047
8180
8078
8098
8150
8016
8207
7977
8221
7992
8176
8068
8108
8195
8026
8271
7953
8325
7939
8342
7990
8280
8087
8225
8197
8157
8237
8109
8216
8122
8178
8210
8081
8285
8039
8371
7993
8348
8004
8289
8083
8192
8168
8080
8241
8006
8320
8020
8274
8023
8195
8086
8092
8143
8043
8191
8047
8182
8074
8070
8150
7994
8255
7932
8309
7874
8303
7911
8256
8024
8209
8150
8144
8245
8092
8264
8085
8222
8137
8166
8242
8104
8317
8048
8320
8038
8267
8089
8145
8168
8052
8278
8001
8367
7996
8359
7989
8260
8033
8162
8112
8091
8183
8059
8205
8115
8137
8138
8005
8192
7916
8252
7879
8258
7913
8245
8024
8189
8147
8109
8254
8063
8321
8060
8326
8107
8261
8166
8150
8230
8103
8273
8080
8240
8134
8163
8209
8073
8288
7987
8371
7948
8367
7969
8339
8063
8224
8113
8095
8150
8028
8193
8052
8161
8084
8060
8137
7993
8210
7935
8241
7966
8231
8054
8169
8165
8081
8263
8011
8340
7993
8359
8035
8317
8094
8213
8166
8127
8215
8087
8219
8122
8180
8203
8097
8265
7991
8333
7956
8370
7979
8311
8036
8228
8126
8117
8208
8052
8257
8020
8255
8049
8194
8123
8093
8165
8017
8204
7997
8184
8033
8115
8134
8031
8233
7951
8315
7923
8367
7988
8364
8073
8268
8114
8116
8158
8068
8225
8107
8231
8175
8138
8218
8052
8293
7998
8316
7996
8318
8112
8251
8167
8132
8239
7993
8251
7930
8280
7978
8258
8036
8158
8102
8065
8138
8020
8140
8034
8112
8118
8043
8228
7982
8328
7941
8357
7949
8324
8010
8254
8118
8162
8218
8103
8290
8091
8323
8158
8279
8195
8123
8214
8041
8265
8029
8250
8086
8190
8163
8103
8253
8014
8355
7977
8363
7942
8300
7988
8205
8063
8138
8190
8098
8198
8058
8142
8062
8038
8145
7970
8225
7943
8299
7955
8289
8000
8201
8083
8103
8197
8037
8309
8042
8358
8067
8328
8121
8226
8164
8117
8216
8078
8228
8100
8194
8172
8116
8270
8028
8351
7969
8385
7974
8382
8048
8307
8109
8142
8134
8047
8199
8022
8203
8068
8185
8137
8077
8214
8026
8248
7955
8170
7945
8107
8047
8020
8155
7965
8284
7964
8393
8028
8371
8037
8243
8085
8157
8178
8113
8250
8113
8209
8159
8173
8260
8066
8311
7975
8328
7958
8329
8004
8251
8095
8153
8191
8072
8279
8027
8302
8027
8268
8066
8169
8137
8084
8171
8027
8195
8037
8151
8111
8074
8194
7976
8281
7919
8346
7927
8331
7983
8276
8101
8209
8189
8147
8268
8111
8261
8101
8193
8167
8114
8255
8040
8299
8012
8291
8045
8243
8129
8149
8226
8055
8300
7972
8317
7941
8286
7972
8197
8051
8112
8131
8067
8168
8041
8136
8079
8077
8186
8031
8301
7958
8312
7910
8287
7956
8263
8093
8205
8203
8127
8269
8034
8280
8035
8261
8080
8189
8197
8147
8326
8169
8329
8070
8155
8030
8038
8155
7995
8278
7942
8350
7954
8386
8018
8309
8094
8216
8158
8118
8202
8052
8192
8091
8167
8134
8055
8193
7977
8261
7950
8262
7973
8220
8074
8159
8194
8056
8257
7981
8326
7987
8330
8050
8301
8150
8214
8214
8125
8244
8089
8208
8135
8149
8225
8071
8310
7974
8333
7919
8334
7963
8279
8036
8192
8152
8114
8238
8039
8241
8036
8263
8107
8151
8121
8024
8128
7933
8161
7975
8161
8058
8116
8163
8006
8264
7955
8340
7950
8365
7999
8315
8072
8224
8160
8141
8222
8109
8254
8120
8190
8183
8124
8279
8043
8330
7991
8335
8016
8302
8103
8225
8199
8102
8251
7988
8269
7940
8252
7975
8187
8036
8099
8120
8051
8166
8036
8181
8093
8124
8154
8010
8245
7947
8323
7914
8326
7941
8288
8034
8240
8158
8161
8247
8093
8282
8080
8274
8127
8197
8215
8132
8292
8059
8292
8042
8255
8103
8173
8184
8065
8275
8000
8368
7959
8333
7930
8226
7991
8201
8164
8153
8172
8015
8111
8000
8078
8087
8044
8210
7968
8269
7929
8297
7945
8262
8036
8212
8161
8131
8259
8049
8319
8029
8324
8068
8270
8131
8187
8225
8155
8311
8127
8255
8123
8156
8175
8061
8278
8010
8381
7959
8368
7953
8318
8021
8246
8130
8147
8194
8058
8210
8022
8164
8047
8087
8120
8026
8199
7969
8234
7962
8221
8041
8193
8189
8122
8279
8010
8321
7927
8303
7949
8307
8065
8238
8150
8163
8224
8119
8241
8114
8194
8172
8089
8238
8013
8324
7965
8361
7984
8318
8025
8235
8121
8117
8202
8042
8285
8023
8286
8059
8248
8088
8079
8088
7984
8131
7998
8205
8062
8137
8114
8005
8184
7929
8296
7919
8357
7965
8348
8033
8263
8133
8196
8255
8176
8309
8115
8245
8120
8144
8195
8081
8283
8019
8313
8015
8285
8055
8230
8160
8111
8218
7997
8284
7954
8315
7967
8281
8023
8184
8089
8097
8150
8049
8161
8042
8132
8124
8067
8212
7988
8299
7931
8331
7932
8302
7997
8244
8110
8174
8224
8104
8290
8058
8303
8085
8262
8149
8172
8223
8086
8259
8054
8249
8096
8215
8174
8120
8264
8020
8359
7965
8364
7937
8306
7966
8202
8029
8112
8124
8046
8178
8034
8153
8065
8104
8156
8030
8230
7958
8271
7947
8264
8008
8243
8144
8163
8228
8035
8294
8007
8357
8031
8325
8074
8247
8171
8185
8230
8114
8246
8099
8199
8165
8125
8251
8038
8342
7970
8367
7954
8367
8007
8280
8103
8198
8179
8067
8225
8011
8210
8024
8195
8093
8060
8072
7923
8109
7928
8176
8001
8177
8119
8100
8204
8002
8300
7959
8360
7960
8351
8027
8322
8149
8233
8206
8132
8225
8088
8221
8164
8200
8261
8141
8344
8028
8322
7946
8284
7976
8235
8081
8145
8178
8057
8262
7993
8303
7991
8263
8029
8173
8077
8069
8135
8030
8191
8055
8173
8110
8070
8189
7991
8266
7922
8326
7914
8328
7961
8268
8068
8205
8181
8139
8278
8102
8274
8086
8228
8169
8175
8266
8112
8334
8073
8322
8066
8247
8135
8159
8226
8064
8304
7985
8366
7973
8340
7985
8225
8020
8137
8110
8066
8149
8028
8138
8059
8085
8139
8009
8231
7944
8290
7929
8319
7977
8265
8074
8186
8195
8121
8284
8055
8328
8038
8289
8073
8219
8147
8139
8246
8108
8265
8077
8202
8115
8115
8178
7996
8270
7954
8393
8022
8449
8037
8323
8023
8140
8051
8029
8130
8003
8162
8027
8145
8093
8074
8169
8004
8236
7970
8257
7993
8223
8074
8154
8188
8080
8289
7998
8348
7979
8342
8017
8296
8106
8249
8247
8203
8273
8112
8211
8099
8149
8199
8070
8277
7981
8332
7955
8351
7975
8293
8052
8204
8153
8116
8226
8030
8261
8019
8255
8047
8148
8077
8050
8145
8018
8224
8038
8199
8058
8115
8165
8037
8277
7963
8332
7931
8352
7963
8315
8052
8242
8154
8155
8224
8102
8247
8099
8207
8162
8130
8235
8053
8306
8005
8320
8014
8279
8087
8197
8170
8089
8253
7998
8313
7976
8329
8006
8249
8043
8152
8113
8074
8156
8027
8167
8067
8125
8151
8049
8237
7963
8318
7933
8345
7960
8310
8038
8241
8155
8167
8249
8101
8303
8068
8283
8099
8206
8165
8122
8241
8060
8268
8050
8255
8098
8166
8177
8079
8274
7983
8341
7928
8331
7945
8298
7995
8192
8074
8108
8158
8047
8163
8045
8134
8092
8068
8187
8003
8269
7962
8295
7947
8263
8025
8215
8149
8131
8263
8060
8341
8038
8352
8051
8293
8098
8205
8185
8132
8246
8094
8236
8107
8179
8178
8090
8264
7998
8346
7955
8364
7965
8334
8000
8236
8097
8137
8178
8045
8210
8008
8178
8026
8116
8095
8051
8170
7992
8226
7986
8225
8059
8183
8139
8081
8239
7995
8333
7965
8368
7985
8344
8045
8256
8140
8171
8201
8106
8239
8108
8202
8157
8131
8229
8035
8320
7987
8341
7975
8307
8021
8239
8128
8137
8212
8045
8266
7985
8274
7981
8208
8029
8119
8103
8050
8165
8018
8180
8043
8145
8127
8061
8224
7989
8324
7944
8379
7961
8360
8028
8285
8123
8192
8209
8126
8262
8089
8258
8108
8197
8177
8110
8257
8045
8297
8019
8279
8048
8217
8145
8115
8222
8004
8285
7937
8307
7929
8272
7975
8188
8050
8088
8108
8039
8146
8039
8137
8099
8088
8202
8019
8305
7970
8355
7981
8361
8028
8284
8136
8201
8236
8128
8329
8070
8324
8057
8275
8102
8190
8186
8110
8253
8072
8252
8091
8215
8165
8122
8242
8017
8328
7951
8360
7938
8334
7976
8252
8052
8146
8131
8053
8165
8018
8159
8043
8107
8106
8037
8198
7981
8266
7970
8258
8003
8219
8115
8143
8226
8063
8315
8002
8353
7995
8330
8052
8264
8129
8165
8187
8103
8240
8105
8216
8161
8151
8245
8052
8311
7960
8346
7945
8340
7986
8268
8069
8169
8152
8056
8202
7997
8225
7989
8174
8046
8106
8123
8042
8190
8012
8220
8031
8187
8108
8111
8217
8034
8319
7981
8387
7973
8380
8018
8308
8106
8220
8185
8144
8233
8101
8246
8118
8182
8180
8090
8263
8018
8320
7992
8315
8009
8257
8090
8160
8189
8067
8267
7984
8304
7966
8277
7990
8192
8048
8096
8135
8054
8171
8042
8171
8097
8103
8184
8017
8285
7959
8356
7950
8362
7995
8315
8093
8226
8188
8139
8257
8074
8284
8075
8254
8116
8178
8201
8093
8268
8045
8281
8054
8241
8128
8155
8205
8055
8291
7966
8347
7940
8327
7965
8250
8024
8166
8111
8079
8171
8035
8155
8055
8105
8114
8040
8216
7980
8298
7959
8323
7993
8276
8081
8208
8194
8127
8292
8050
8336
8029
8324
8060
8243
8123
8169
8204
8104
8249
8085
8222
8130
8142
8204
8052
8296
7978
8356
7941
8358
7956
8287
8022
8196
8111
8093
8174
8023
8200
8009
8158
8052
8092
8136
8029
8231
8007
8260
8009
8231
8078
8159
8187
8087
8294
8015
8371
7980
8378
8009
8316
8075
8234
8169
8156
8230
8116
8240
8123
8185
8195
8103
8265
8015
8337
7976
8344
7973
8286
8041
8209
8137
8095
8206
7995
8241
7971
8241
7991
8172
8059
8092
8135
8033
8191
8027
8191
8072
8135
8168
8047
8272
7979
8360
7957
8389
7986
8351
8059
8260
8147
8169
8220
8096
8247
8081
8217
8118
8141
8201
8070
8278
8017
8308
8023
8286
8086
8198
8164
8085
8238
7981
8293
7940
8300
7945
8238
8005
8155
8081
8075
8147
8050
8169
8067
8138
8135
8063
8228
7986
8319
7950
8349
7969
8331
8030
8240
8131
8156
8232
8085
8293
8051
8288
8066
8231
8132
8149
8213
8087
8261
8052
8242
8101
8180
8165
8080
8257
7992
8339
7933
8354
7945
8314
7991
8210
8059
8112
8129
8026
8157
8020
8139
8067
8084
8163
8038
8260
7985
8296
7986
8286
8070
8245
8165
8136
8252
8039
8338
8003
8352
8009
8311
8074
8225
8158
8140
8212
8101
8234
8123
8214
8189
8119
8245
8009
8325
7949
8350
7946
8330
8001
8237
8082
8122
8148
8023
8199
7986
8199
7998
8141
8069
8073
8149
8023
8212
8004
8218
8044
8186
8155
8112
8264
8022
8341
7973
8383
7985
8355
8033
8285
8125
8197
8204
8123
8233
8102
8219
8142
8164
8219
8066
8292
7997
8322
7979
8298
8013
8230
8105
8125
8188
8021
8247
7954
8268
7956
8226
8006
8157
8079
8069
8149
8033
8181
8049
8156
8131
8100
8237
8018
8338
7968
8384
7969
8370
8006
8286
8105
8197
8193
8116
8259
8074
8267
8084
8218
8148
8139
8229
8068
8286
8035
8282
8067
8223
8133
8123
8219
8014
8298
7958
8338
7934
8298
7965
8217
8038
8122
8105
8048
8154
8037
8155
8093
8110
8186
8045
8281
7985
8341
7980
8345
8020
8281
8120
8193
8213
8097
8288
8035
8324
8031
8292
8080
8220
8149
8135
8237
8092
8235
8080
8208
8142
8130
8232
8032
8319
7959
8364
7945
8345
7969
8267
8030
8154
8117
8057
8172
8013
8171
8024
8132
8089
8071
8183
8007
8253
7979
8255
8013
8231
8115
8166
8229
8086
8332
8021
8377
7997
8359
8028
8290
8110
8221
8201
8132
8240
8100
8214
8144
8155
8204
8065
8293
7986
8343
7954
8339
7981
8273
8060
8172
8146
8068
8205
7990
8238
7978
8204
8017
8143
8102
8078
8171
8028
8211
8030
8187
8109
8132
8207
8049
8308
7977
8384
7972
8391
7998
8330
8083
8231
8162
8149
8221
8087
8226
8083
8189
8140
8115
8235
8051
8310
8019
8329
8016
8252
8079
8159
8174
8063
8256
7969
8300
7933
8276
7957
8201
8031
8123
8098
8051
8156
8037
8170
8086
8129
8178
8050
8283
8001
8371
7971
8387
8004
8329
8080
8247
8179
8151
8256
8078
8297
8058
8284
8103
8205
8177
8118
8244
8063
8273
8058
8229
8102
8157
8190
8061
8280
7962
8330
7922
8330
7934
8258
7989
8168
8072
8076
8146
8030
8153
8030
8128
8100
8071
8202
8012
8297
7995
8335
8017
8298
8101
8229
8199
8134
8281
8044
8345
8018
8344
8041
8283
8100
8195
8187
8118
8236
8084
8211
8102
8164
8191
8067
8271
7979
8337
7927
8333
7938
8287
7992
8188
8082
8092
8162
8015
8203
8001
8184
8051
8145
8136
8074
8201
8006
8239
8015
8244
8101
8190
8191
8103
8287
8013
8373
7977
8383
8003
8339
8063
8251
8154
8175
8216
8097
8231
8099
8190
8160
8109
8244
8033
8312
7986
8340
7981
8295
8039
8216
8135
8100
8212
8003
8253
7954
8256
7965
8192
8027
8111
8114
8048
8172
8035
8186
8062
8140
8156
8065
8264
7995
8355
7964
8388
7981
8359
8043
8277
8141
8174
8218
8098
8255
8074
8252
8104
8184
8187
8107
8266
8038
8291
8025
8263
8054
8185
8146
8095
8246
8001
8322
7946
8321
7939
8274
7989
8181
8066
8082
8128
8040
8157
8048
8130
8110
8077
8207
8005
8310
7973
8355
7975
8335
8037
8258
8142
8161
8234
8086
8301
8037
8316
8060
8280
8120
8198
8201
8113
8260
8092
8264
8114
8191
8168
8098
8251
7995
8333
7939
8350
7925
8312
7960
8212
8048
8115
8124
8034
8173
8023
8174
8068
8130
8136
8050
8214
7995
8288
7999
8281
8053
8231
8152
8147
8264
8067
8346
7999
8363
8001
8332
8046
8240
8119
8162
8201
8102
8230
8097
8192
8152
8113
8227
8029
8307
7960
8349
7948
8320
7986
8234
8062
8129
8154
8024
8204
7991
8224
7987
8171
8048
8110
8141
8057
8209
8027
8221
8049
8190
8143
8117
8261
8042
8360
7993
8406
7989
8376
8023
8289
8106
8208
8197
8137
8242
8096
8240
8115
8173
8187
8082
8270
8014
8304
7985
8289
8019
8224
8092
8118
8186
8019
8258
7951
8283
7934
8245
7976
8177
8066
8102
8139
8053
8178
8061
8179
8131
8118
8228
8042
8337
7995
8391
7980
8386
8031
8314
8112
8215
8202
8123
8267
8075
8288
8065
8246
8121
8156
8199
8091
8267
8044
8259
8059
8213
8124
8130
8218
8023
8298
7948
8334
7913
8308
7947
8222
8014
8133
8102
8060
8166
8041
8167
8072
8127
8152
8047
8248
7996
8322
7988
8340
8030
8286
8124
8201
8220
8095
8289
8024
8343
8022
8322
8057
8243
8147
8166
8214
8106
8249
8089
8201
8139
8135
8207
8024
8290
7960
8352
7925
8334
7950
8260
8020
8160
8115
8063
8183
8009
8200
8011
8161
8075
8102
8156
8038
8240
8015
8261
8038
8236
8127
8170
8240
8089
8318
7995
8372
7970
8360
8006
8303
8085
8213
8168
8140
8226
8098
8221
8119
8168
8194
8073
8278
7998
8327
7973
8333
7984
8271
8049
8156
8133
8033
8200
7964
8240
7954
8233
8001
8169
8076
8095
8158
8051
8203
8046
8187
8116
8145
8212
8055
8307
7986
8382
7962
8395
8008
8343
8081
8241
8164
8147
8233
8087
8269
8090
8227
8132
8141
8212
8064
8274
8014
8292
8022
8252
8099
8170
8188
8053
8257
7958
8310
7928
8298
7942
8234
8014
8156
8104
8079
8164
8059
8166
8079
8137
8164
8066
8263
8001
8349
7976
8373
8010
8325
8086
8234
8174
8136
8260
8059
8309
8036
8296
8067
8221
8134
8137
8201
8069
8253
8055
8217
8115
8158
8189
8052
8273
7967
8339
7915
8325
7919
8266
7983
8179
8081
8094
8169
8045
8195
8046
8165
8087
8090
8188
8039
8284
8014
8322
8022
8295
8106
8206
8180
8103
8272
8025
8348
7998
8350
8012
8297
8078
8205
8158
8126
8220
8099
8218
8113
8171
8186
8078
8261
7990
8330
7949
8348
7951
8296
8005
8195
8095
8094
8163
8003
8217
7988
8211
8019
8154
8090
8086
8170
8037
8233
8040
8246
8113
8192
8203
8102
8299
8022
8371
7971
8385
7983
8340
8037
8247
8120
8158
8206
8094
8241
8095
8201
8135
8131
8224
8055
8297
7995
8318
7993
8290
8054
8203
8123
8087
8205
7994
8260
7941
8273
7951
8227
8031
8161
8115
8090
8169
8058
8198
8080
8159
8175
8101
8273
8022
8360
7980
8391
7976
8355
8034
8270
8132
8178
8222
8101
8263
8057
8265
8085
8206
8147
8123
8218
8045
8269
8031
8251
8077
8191
8157
8093
8244
7986
8317
7921
8323
7914
8276
7971
8201
8058
8119
8148
8056
8186
8055
8172
8114
8108
8209
8047
8309
7999
8357
8005
8340
8048
8260
8150
8163
8239
8074
8309
8027
8331
8028
8284
8082
8201
8166
8116
8216
8081
8229
8085
8180
8156
8100
8243
7995
8321
7933
8346
7917
8305
7962
8219
8038
8126
8139
8037
8194
8014
8197
8040
8141
8106
8072
8208
8036
8285
8033
8286
8086
8239
8169
8143
8259
8045
8346
7986
8375
7990
8348
8033
8258
8115
8170
8180
8092
8211
8092
8192
8129
8112
8208
8030
8287
7962
8334
7959
8316
7992
8226
8070
8120
8145
8010
8219
7964
8260
7994
8220
8040
8139
8113
8079
8188
8048
8227
8088
8204
8166
8132
8258
8040
8354
7984
8389
7966
8369
8011
8291
8101
8196
8185
8119
8231
8068
8235
8092
8181
8150
8098
8237
8031
8295
8014
8308
8044
8226
8110
8121
8199
8007
8268
7936
8300
7916
8264
7974
8213
8060
8136
8146
8072
8181
8069
8177
8116
8124
8221
8056
8320
8000
8377
7989
8375
8032
8300
8112
8208
8210
8123
8279
8060
8308
8053
8263
8094
8182
8170
8096
8227
8048
8235
8054
8191
8126
8105
8220
8001
8291
7933
8339
7909
8305
7942
8231
8028
8142
8116
8062
8179
8035
8179
8069
8152
8157
8080
8236
8016
8305
8006
8327
8056
8271
8145
8180
8235
8075
8314
8004
8346
7995
8332
8046
8249
8105
8168
8182
8096
8228
8096
8200
8136
8123
8212
8034
8299
7964
8343
7939
8329
7960
8239
8024
8137
8122
8042
8200
8005
8237
8007
8204
8063
8137
8148
8076
8238
8036
8251
8070
8230
8144
8154
8253
8055
8335
7983
8379
7959
8360
7997
8292
8075
8204
8169
8137
8231
8091
8235
8116
8186
8185
8089
8250
8017
8313
7982
8310
8002
8246
8080
8146
8156
8026
8231
7953
8268
7938
8263
7991
8194
8077
8114
8146
8065
8196
8068
8198
8146
8154
8229
8057
8328
8005
8389
7975
8381
7996
8301
8077
8215
8169
8119
8245
8064
8281
8067
8244
8106
8153
8176
8071
8248
8019
8237
8025
8219
8105
8136
8191
8025
8272
7942
8325
7924
8328
7964
8258
8027
8158
8112
8069
8161
8044
8175
8085
8157
8184
8087
8278
8027
8345
8003
8361
8025
8301
8105
8205
8195
8107
8280
8028
8324
8005
8308
8036
8233
8115
8145
8185
8089
8238
8074
8203
8122
8140
8202
8035
8281
7942
8326
7905
8322
7926
8252
8002
8165
8101
8086
8180
8030
8221
8033
8199
8094
8126
8181
8066
8279
8044
8303
8057
8264
8126
8190
8222
8092
8309
8005
8373
7986
8372
8006
8308
8074
8214
8164
8147
8220
8097
8221
8115
8175
8186
8078
8266
8005
8324
7956
8318
7965
8250
8008
8155
8102
8056
8193
7971
8237
7966
8240
8000
8176
8083
8113
8163
8063
8225
8075
8225
8140
8181
8233
8094
8321
8002
8388
7975
8394
7995
8333
8053
8231
8148
8159
8227
8091
8262
8079
8211
8127
8138
8198
8050
8260
8003
8283
8002
8237
8066
8150
8146
8041
8226
7944
8274
7915
8303
7954
8244
8022
8161
8109
8092
8180
8073
8204
8106
8177
8190
8095
8280
8018
8352
7984
8374
8000
8328
8073
8240
8164
8147
8249
8060
8301
8026
8283
8053
8214
8128
8135
8210
8075
8251
8059
8222
8097
8148
8172
8043
8253
7948
8318
7903
8322
7913
8264
7983
8181
8079
8098
8153
8044
8193
8047
8171
8109
8120
8214
8069
8300
8026
8340
8038
8302
8104
8223
8185
8121
8278
8031
8348
7995
8352
8005
8293
8071
8206
8154
8133
8215
8090
8216
8103
8154
8165
8068
8253
7984
8320
7942
8336
7938
8281
7978
8192
8088
8093
8178
8021
8227
7996
8218
8019
8172
8102
8098
8199
8059
8256
8053
8257
8114
8203
8203
8115
8298
8028
8374
7978
8387
7980
8342
8037
8252
8128
8159
8195
8088
8217
8079
8203
8143
8134
8217
8046
8291
7988
8319
7982
8272
8024
8181
8102
8081
8187
7978
8253
7944
8282
7966
8236
8032
8172
8123
8095
8180
8070
8218
8106
8191
8192
8123
8289
8032
8367
7976
8387
7978
8356
8035
8265
8124
8174
8217
8096
8260
8055
8264
8077
8198
8138
8113
8216
8050
8264
8032
8245
8061
8178
8135
8071
8211
7962
8281
7911
8318
7923
8296
7985
8203
8065
8123
8153
8071
8196
8071
8191
8138
8142
8233
8074
8328
8013
8361
8010
8340
8052
8263
8151
8165
8243
8077
8308
8011
8310
8009
8268
8070
8191
8162
8119
8220
8074
8229
8093
8181
8158
8097
8243
7988
8310
7919
8327
7902
8282
7941
8210
8041
8128
8144
8049
8201
8021
8202
8059
8179
8133
8106
8244
8063
8309
8052
8311
8091
8241
8168
8139
8262
8035
8341
7978
8367
7980
8337
8025
8254
8118
8170
8184
8096
8217
8089
8189
8141
8134
8215
8037
8299
7965
8322
7943
8287
7969
8205
8056
8098
8148
8016
8234
7977
8263
7993
8228
8052
8162
8128
8092
8225
8065
8244
8092
8216
8174
8137
8272
8036
8354
7973
8391
7962
8372
8013
8284
8099
8192
8186
8117
8238
8074
8251
8093
8183
8166
8104
8239
8027
8288
7996
8271
8016
8204
8092
8107
8181
7994
8261
7939
8297
7927
8289
7994
8217
8067
8141
8161
8087
8219
8093
8200
8141
8143
8243
8065
8327
8005
8370
7975
8361
8018
8300
8115
8201
8198
8100
8267
8038
8298
8043
8256
8088
8179
8162
8087
8209
8046
8231
8055
8194
8122
8113
8204
8009
8293
7932
8320
7898
8305
7933
8235
8020
8154
8125
8075
8189
8061
8206
8085
8180
8178
8112
8268
8047
8337
8028
8341
8050
8277
8136
8180
8226
8086
8301
8001
8333
7986
8320
8021
8244
8099
8168
8178
8099
8218
8077
8190
8121
8114
8194
8030
8275
7945
8315
7908
8312
7931
8236
8013
8155
8134
8078
8215
8023
8248
8026
8229
8078
8167
8177
8095
8257
8064
8290
8082
8253
8159
8174
8240
8071
8320
7987
8373
7964
8369
7990
8301
8073
8221
8157
8136
8216
8084
8232
8097
8169
8173
8086
8239
8006
8302
7962
8295
7967
8226
8040
8130
8136
8026
8217
7954
8263
7947
8263
7991
8203
8066
8132
8169
8094
8239
8103
8236
8164
8182
8243
8080
8332
8002
8376
7963
8380
7991
8319
8075
8235
8161
8131
8231
8060
8254
8056
8237
8104
8156
8173
8077
8249
8035
8281
8035
8215
8071
8118
8166
8027
8261
7953
8331
7926
8325
7957
8265
8028
8184
8124
8100
8187
8076
8212
8110
8176
8186
8104
8281
8036
8338
7992
8353
8011
8301
8087
8209
8169
8112
8257
8036
8315
8014
8309
8041
8234
8108
8157
8184
8080
8230
8058
8200
8107
8140
8180
8028
8252
7943
8319
7900
8320
7913
8263
7996
8188
8101
8104
8181
8041
8219
8050
8205
8101
8163
8199
8089
8288
8054
8324
8047
8272
8109
8195
8193
8098
8289
8007
8356
7965
8358
7995
8308
8064
8213
8137
8120
8188
8081
8205
8097
8160
8163
8078
8239
7990
8299
7934
8314
7937
8270
8011
8193
8113
8088
8196
8015
8255
7993
8269
8025
8217
8112
8143
8203
8101
8262
8087
8255
8128
8193
8213
8102
8300
8010
8375
7964
8386
7977
8335
8032
8244
8129
8156
8197
8084
8234
8076
8217
8111
8136
8189
8059
8263
8002
8289
7989
8240
8021
8158
8106
8062
8202
7965
8271
7933
8300
7956
8250
8020
8186
8105
8117
8204
8094
8227
8113
8195
8189
8125
8278
8040
8354
7987
8384
7985
8344
8029
8254
8127
8155
8223
8084
8281
8047
8298
8066
8229
8119
8134
8192
8063
8240
8036
8221
8062
8159
8139
8060
8216
7946
8275
7893
8316
7906
8286
7975
8209
8056
8129
8156
8069
8209
8080
8215
8130
8162
8221
8094
8320
8041
8357
8032
8334
8076
8243
8158
8145
8245
8047
8326
8000
8338
8006
8302
8056
8226
8148
8135
8204
8081
8218
8087
8176
8147
8087
8223
7988
8294
7921
8317
7908
8290
7958
8212
8057
8120
8150
8044
8217
8022
8248
8057
8207
8125
8137
8219
8077
8281
8058
8269
8097
8222
8173
8137
8266
8036
8349
7982
8383
7973
8351
8014
8265
8100
8172
8169
8095
8210
8086
8200
8122
8144
8192
8040
8260
7960
8285
7940
8265
7968
8200
8063
8102
8155
8006
8235
7950
8276
7978
8267
8037
8190
8121
8122
8213
8094
8248
8121
8227
8185
8150
8268
8047
8355
7991
8391
7976
8379
8018
8302
8104
8199
8185
8113
8246
8069
8255
8076
8204
8125
8117
8216
8052
8267
8011
8257
8023
8188
8087
8095
8174
7987
8257
7924
8308
7918
8304
7970
8231
8057
8152
8152
8101
8219
8103
8219
8151
8166
8222
8074
8301
8004
8351
7971
8331
8007
8282
8111
8205
8209
8101
8279
8036
8318
8030
8288
8071
8209
8134
8121
8209
8070
8231
8063
8192
8124
8112
8198
8005
8271
7916
8318
7890
8309
7936
8250
8013
8168
8125
8092
8202
8050
8227
8079
8202
8153
8136
8239
8070
8307
8035
8318
8050
8265
8132
8176
8217
8078
8302
8002
8357
7980
8341
8015
8288
8091
8192
8167
8101
8209
8083
8203
8120
8147
8187
8046
8253
7951
8298
7906
8296
7927
8239
8009
8151
8119
8062
8204
8005
8251
8005
8251
8066
8198
8152
8135
8246
8087
8276
8083
8238
8138
8167
8228
8075
8319
7990
8380
7957
8372
7982
8321
8055
8226
8151
8140
8214
8081
8229
8087
8186
8135
8105
8209
8020
8274
7974
8285
7980
8227
8025
8126
8130
8042
8227
7967
8284
7942
8300
7980
8238
8063
8176
8166
8119
8233
8109
8233
8148
8188
8220
8115
8323
8021
8377
7984
8393
7991
8322
8049
8226
8136
8128
8219
8049
8266
8041
8264
8079
8201
8149
8106
8218
8052
8264
8034
8213
8075
8131
8147
8016
8225
7933
8301
7906
8318
7927
8272
8000
8194
8103
8119
8183
8079
8237
8105
8213
8188
8161
8264
8064
8324
8007
8344
8011
8307
8083
8223
8162
8127
8250
8027
8316
7999
8323
8023
8267
8078
8185
8162
8101
8204
8072
8201
8092
8154
8159
8049
8236
7955
8301
7904
8319
7903
8272
7981
8209
8083
8120
8170
8047
8228
8043
8249
8090
8196
8182
8129
8271
8077
8310
8058
8283
8104
8222
8190
8117
8280
8025
8352
7978
8364
7977
8325
8030
8237
8119
8154
8190
8090
8204
8091
8181
8126
8096
8206
8005
8273
7940
8300
7929
8261
7975
8182
8075
8095
8178
8013
8251
7980
8285
8014
8256
8081
8189
8181
8128
8258
8101
8254
8118
8203
8178
8108
8270
8020
8355
7967
8388
7967
8356
8011
8269
8098
8171
8188
8090
8239
8068
8241
8096
8182
8170
8090
8233
8023
8272
7990
8244
8012
8172
8091
8074
8192
7982
8280
7944
8326
7947
8293
8002
8224
8101
8162
8190
8110
8248
8119
8226
8178
8159
8252
8060
8323
7985
8355
7968
8341
8010
8268
8109
8171
8200
8086
8269
8022
8290
8035
8259
8084
8169
8151
8087
8226
8045
8224
8051
8168
8104
8076
8182
7967
8275
7914
8329
7909
8310
7951
8238
8044
8163
8154
8095
8218
8071
8236
8114
8196
8193
8116
8277
8047
8331
8022
8323
8053
8258
8129
8160
8228
8074
8311
8005
8349
7988
8323
8030
8248
8109
8165
8180
8098
8222
8084
8189
8125
8095
8184
7998
8252
7924
8308
7911
8304
7945
8242
8034
8160
8141
8074
8224
8026
8270
8042
8253
8109
8182
8195
8113
8265
8072
8287
8082
8244
8154
8158
8242
8063
8320
7983
8377
7963
8361
7990
8286
8065
8200
8163
8126
8209
8077
8230
8100
8169
8166
8077
8234
7998
8297
7963
8276
7973
8222
8038
8123
8136
8025
8228
7965
8294
7973
8288
8021
8231
8102
8174
8205
8118
8261
8104
8229
8152
8169
8232
8076
8319
7984
8372
7960
8366
7981
8312
8071
8225
8161
8138
8228
8057
8253
8051
8239
8096
8147
8170
8056
8228
8007
8232
8010
8206
8069
8123
8162
8020
8249
7952
8322
7925
8320
7953
8256
8027
8189
8140
8136
8209
8097
8242
8129
8203
8206
8134
8294
8040
8346
7995
8351
8009
8305
8076
8217
8175
8116
8261
8043
8315
8012
8302
8038
8228
8092
8141
8176
8082
8230
8058
8198
8078
8122
8153
8022
8231
7932
8304
7893
8318
7920
8272
7992
8196
8098
8117
8186
8061
8246
8090
8265
8153
8200
8227
8123
8312
8067
8325
8044
8273
8097
8196
8174
8098
8277
8005
8334
7957
8344
7984
8302
8056
8222
8137
8141
8203
8093
8232
8097
8156
8141
8055
8206
7967
8265
7907
8293
7916
8253
7981
8185
8095
8107
8225
8083
8327
8054
8312
8064
8224
8094
8126
8167
8083
8254
8081
8250
8119
8203
8200
8099
8266
7989
8350
7969
8391
7983
8370
8056
8290
8169
8209
8215
8080
8200
8026
8144
8057
8093
8145
8030
8221
7964
8248
7964
8226
8007
8158
8102
8079
8210
7995
8284
7955
8321
7970
8288
8050
8239
8153
8157
8204
8103
8243
8119
8198
8187
8133
8266
8040
8348
7980
8384
7985
8356
8031
8265
8119
8158
8196
8063
8252
8022
8260
8037
8198
8100
8125
8188
8094
8280
8056
8226
8038
8135
8107
8054
8204
7951
8280
7923
8337
7917
8299
7979
8236
8075
8164
8187
8116
8245
8105
8246
8155
8190
8238
8097
8305
8030
8342
8010
8330
8054
8261
8145
8159
8247
8065
8306
8000
8333
7998
8292
8046
8199
8098
8092
8137
8030
8164
8045
8136
8115
8067
8194
7965
8267
7920
8322
7903
8291
7950
8238
8071
8158
8170
8085
8256
8073
8294
8089
8243
8141
8179
8264
8135
8343
8099
8312
8099
8224
8144
8131
8248
8033
8330
7955
8354
7946
8333
7997
8245
8059
8163
8163
8097
8199
8059
8186
8090
8099
8150
8015
8232
7964
8288
7931
8272
7970
8212
8065
8126
8171
8033
8241
7982
8293
7991
8286
8084
8275
8183
8155
8213
8086
8237
8097
8222
8180
8170
8271
8069
8368
8016
8420
7986
8364
7969
8231
7993
8126
8114
8070
8201
8039
8222
8064
8220
8145
8127
8197
8016
8229
7974
8230
8005
8208
8105
8132
8198
8031
8288
7973
8347
7954
8337
8017
8307
8113
8183
8148
8107
8213
8087
8213
8131
8169
8219
8093
8320
8016
8343
7965
8340
7991
8270
8061
8172
8168
8093
8252
8036
8310
8028
8290
8075
8218
8136
8113
8192
8053
8214
8051
8199
8110
8102
8168
7988
8252
7927
8328
7909
8328
7950
8269
8035
8193
8131
8124
8216
8073
8250
8095
8224
8172
8165
8267
8089
8323
8034
8318
8031
8256
8097
8163
8190
8067
8280
8003
8352
7989
8365
8035
8300
8095
8189
8143
8080
8166
8053
8182
8092
8125
8154
8022
8226
7947
8298
7918
8315
7937
8252
8003
8167
8117
8083
8215
8030
8272
8045
8292
8093
8214
8144
8129
8249
8105
8297
8090
8246
8123
8166
8209
8081
8298
7983
8373
7968
8384
7986
8331
8055
8230
8130
8137
8204
8096
8228
8080
8192
8140
8122
8226
8048
8278
7965
8261
7943
8214
8011
8139
8112
8017
8181
7936
8260
7961
8342
8051
8342
8149
8228
8175
8112
8213
8069
8214
8122
8193
8236
8130
8300
8000
8336
7944
8369
7975
8340
8048
8253
8141
8146
8207
8039
8221
8002
8202
8033
8150
8131
8115
8259
8079
8271
8051
8253
8113
8172
8125
7980
8160
7884
8246
7881
8313
7938
8324
8046
8255
8131
8150
8188
8090
8237
8100
8211
8170
8149
8246
8065
8329
8023
8358
8024
8323
8075
8243
8163
8141
8244
8019
8279
7977
8292
7995
8261
8071
8189
8166
8117
8218
8079
8209
8045
8113
8112
8020
8190
7941
8291
7905
8329
7929
8319
7992
8231
8100
8151
8185
8075
8235
8048
8262
8127
8236
8196
8134
8269
8086
8324
8065
8284
8082
8206
8157
8104
8228
7972
8321
7988
8428
8108
8470
8145
8304
8094
8065
8057
7959
8095
8031
8166
8114
8084
8190
8000
8239
7902
8267
7906
8269
7997
8224
8108
8146
8206
8041
8262
7990
8294
8022
8277
8107
8213
8203
8164
8279
8098
8252
8096
8208
8190
8139
8276
8032
8347
7966
8391
7974
8375
8025
8302
8118
8169
8137
8046
8207
8060
8259
8124
8188
8124
8030
8158
7988
8264
7963
8220
7977
8153
8074
8074
8176
7971
8271
7943
8313
7925
8273
7987
8226
8122
8246
8314
8215
8306
8141
8199
8106
8091
8208
8046
8332
8003
8372
7972
8336
7991
8249
8078
8159
8220
8136
8333
8083
8331
8037
8246
8066
8110
8087
8035
8167
8006
8196
8019
8150
8089
8085
8215
8015
8345
7983
8379
7933
8332
7962
8249
8036
8182
8184
8153
8262
8119
8269
8133
8215
8219
8142
8302
8063
8331
8004
8291
8028
8257
8125
8160
8205
8035
8246
7953
8327
7968
8315
8079
8373
8192
8176
8144
8026
8122
7985
8073
8010
8014
8143
7998
8262
7969
8371
7948
8327
7942
8231
8019
8153
8140
8113
8264
8076
8312
8086
8286
8124
8201
8208
8131
8284
8088
8302
8090
8252
8150
8158
8229
8063
8304
7969
8366
7952
8364
7996
8296
8073
8200
8154
8131
8213
8078
8190
8062
8115
8120
8045
8204
7970
8259
7924
8257
7955
8222
8025
8141
8156
8068
8260
7998
8316
7983
8306
8039
8279
8154
8202
8228
8143
8267
8115
8228
8134
8140
8200
8031
8281
7979
8371
7966
8381
7983
8307
8062
8211
8148
8125
8229
8064
8269
8086
8300
8183
8190
8128
7988
8138
7966
8222
8001
8192
8055
8101
8121
7986
8220
7922
8299
7904
8312
7957
8277
8068
8235
8190
8189
8241
8115
8244
8121
8200
8214
8143
8308
8060
8358
8010
8375
8026
8310
8077
8208
8156
8091
8234
8014
8280
8000
8311
8063
8268
8100
8117
8122
8045
8200
8047
8181
8049
8101
8137
8014
8244
7953
8340
7922
8315
7889
8236
7965
8185
8098
8134
8241
8156
8341
8126
8239
8092
8129
8169
8062
8275
8057
8334
8061
8272
8079
8175
8181
8092
8289
8022
8369
7990
8367
8004
8302
8049
8208
8132
8110
8168
8043
8156
8061
8155
8162
8070
8230
8016
8331
7928
8259
7883
8233
7972
8156
8083
8087
8199
8034
8303
8061
8348
8101
8287
8167
8193
8226
8106
8265
8084
8233
8117
8193
8216
8122
8303
8011
8354
7952
8384
7988
8348
8027
8241
8103
8128
8168
8056
8197
8033
8173
8118
8176
8259
8147
8337
8019
8255
7938
8192
7961
8118
8062
7991
8145
7930
8255
7936
8353
8038
8362
8114
8268
8190
8171
8221
8107
8220
8111
8202
8205
8147
8284
8051
8376
8000
8383
7970
8333
8017
8251
8124
8160
8221
8071
8273
8049
8294
8062
8195
8075
8105
8167
8054
8261
8052
8224
8041
8120
8098
8028
8201
7959
8316
7934
8351
7943
8316
7995
8247
8112
8185
8197
8093
8217
8069
8212
8150
8199
8228
8058
8267
7998
8325
8018
8331
8073
8244
8142
8127
8224
8041
8307
7975
8301
7960
8235
8009
8190
8121
8151
8227
8124
8249
8053
8103
8077
8036
8192
7971
8298
7936
8353
7940
8330
7983
8237
8065
8144
8184
8112
8333
8152
8349
8132
8240
8107
8100
8138
8014
8222
8013
8234
8054
8194
8139
8120
8253
8052
8370
7999
8398
7987
8358
8020
8263
8085
8173
8167
8077
8169
8031
8141
8061
8068
8130
8004
8252
7985
8333
7989
8327
7996
8186
8033
8103
8190
8075
8306
8060
8385
8042
8289
8057
8214
8133
8117
8181
8055
8204
8071
8198
8174
8155
8283
8068
8368
7999
8407
7994
8390
8027
8301
8087
8181
8153
8062
8213
8034
8221
8052
8185
8097
8080
8148
7990
8200
7959
8215
8001
8177
8103
8117
8199
7999
8283
7960
8346
7977
8362
8020
8280
8114
8199
8188
8126
8259
8130
8278
8221
8228
8252
8078
8295
7990
8325
7933
8279
7962
8232
8066
8165
8193
8092
8282
8068
8401
8096
8296
8025
8135
8088
8050
8102
7953
8109
7987
8161
8140
8145
8197
7994
8283
7930
8344
7928
8339
7961
8278
8057
8187
8139
8100
8223
8083
8275
8124
8257
8195
8168
8265
8078
8317
8041
8312
8041
8249
8114
8162
8214
8081
8319
8007
8362
7990
8358
8024
8289
8086
8161
8117
8052
8131
8015
8139
8068
8088
8147
8001
8213
7938
8347
8005
8379
7974
8236
7990
8126
8105
8074
8242
8051
8317
8060
8301
8101
8228
8182
8170
8293
8137
8326
8123
8250
8142
8166
8250
8093
8337
7979
8362
7955
8389
8002
8324
8045
8176
8094
8055
8154
8033
8149
8021
8141
8116
8110
8269
8067
8253
7898
8185
7895
8162
7991
8100
8131
8078
8329
8114
8399
7985
8298
7954
8218
8053
8188
8185
8125
8219
8096
8232
8155
8195
8241
8119
8335
8020
8377
7978
8377
7995
8324
8072
8235
8158
8131
8213
8026
8249
8029
8256
8111
8257
8199
8086
8149
7985
8192
8008
8178
8020
8067
8100
7968
8222
7956
8366
7979
8381
7969
8292
8046
8236
8143
8124
8208
8142
8291
8131
8207
8167
8120
8243
8036
8305
7998
8337
8013
8294
8077
8200
8158
8099
8261
8031
8353
8014
8316
7994
8193
7995
8072
8063
8038
8167
8034
8159
8049
8091
8139
8039
8263
7976
8329
7928
8352
7961
8295
8028
8260
8190
8213
8290
8146
8328
8099
8284
8120
8197
8176
8109
8258
8067
8307
8077
8295
8136
8224
8222
8133
8317
8002
8324
7928
8331
7956
8311
8034
8200
8064
8075
8131
8059
8201
8068
8132
8117
8049
8146
7918
8189
7904
8288
7948
8284
8057
8243
8172
8131
8232
7996
8239
7945
8281
8023
8280
8117
8202
8195
8127
8288
8182
8326
8165
8194
8193
8106
8308
8044
8388
7984
8395
7955
8294
7985
8226
8107
8143
8180
8062
8223
8030
8186
8053
8126
8127
8049
8205
8001
8270
7992
8207
8011
8141
8100
8017
8169
7911
8271
7943
8365
8013
8356
8063
8246
8174
8239
8280
8151
8253
8104
8180
8168
8111
8259
8057
8357
8013
8379
8007
8347
8044
8239
8134
8152
8220
8044
8260
8008
8294
8037
8261
8096
8130
8094
7986
8116
7969
8110
7952
8043
8082
8011
8204
7972
8346
8002
8425
8002
8398
8051
8278
8132
8221
8264
8172
8311
8134
8291
8157
8207
8209
8116
8293
8057
8331
8036
8298
8074
8217
8131
8100
8222
8011
8308
7974
8350
7985
8328
8044
8222
8091
8089
8087
7966
8085
7981
8073
8084
8108
8246
8000
8256
7877
8247
7860
8238
7943
8212
8095
8189
8246
8135
8335
8093
8346
8123
8332
8189
8227
8260
8168
8330
8127
8297
8100
8176
8131
8090
8241
8026
8356
7980
8392
7974
8364
8006
8258
8084
8167
8155
8073
8184
8017
8155
8064
8114
8127
8027
8205
7957
8250
7933
8239
7975
8182
8072
8100
8203
8058
8313
8003
8344
8003
8318
8054
8251
8143
8159
8190
8075
8190
8082
8209
8175
8163
8281
8083
8377
8027
8402
7972
8358
8011
8295
8099
8198
8181
8094
8239
8028
8232
8008
8169
8058
8083
8109
8019
8180
7980
8195
7986
8131
8057
8064
8181
7997
8304
7963
8360
7965
8371
8033
8336
8146
8250
8220
8175
8280
8138
8262
8137
8179
8194
8079
8284
8036
8360
8015
8348
8028
8270
8117
8160
8169
8026
8238
7983
8308
7982
8295
8049
8218
8099
8105
8141
8045
8165
8018
8133
8071
8068
8177
7992
8256
7924
8328
7928
8361
7983
8276
8038
8177
8162
8120
8230
8045
8260
8095
8292
8208
8203
8244
8126
8329
8073
8281
8014
8204
8096
8127
8206
8058
8316
7992
8387
7995
8363
7995
8259
8046
8183
8160
8101
8172
8027
8157
8092
8133
8145
7996
8175
7909
8250
7916
8303
7950
8230
8019
8133
8147
8104
8288
8061
8356
8072
8348
8095
8263
8120
8126
8195
8085
8261
8117
8280
8193
8208
8271
8106
8346
7995
8386
7963
8374
7980
8304
8046
8211
8142
8128
8220
8057
8195
8023
8168
8106
8114
8159
8002
8187
7921
8206
7980
8235
8084
8143
8154
8038
8256
7964
8329
7961
8354
8020
8321
8103
8236
8194
8154
8234
8120
8248
8123
8152
8189
8128
8369
8092
8385
7957
8313
7925
8223
7975
8154
8116
8103
8230
8031
8293
8031
8283
8043
8162
8072
8065
8131
8010
8204
8057
8218
8106
8131
8139
7991
8213
7914
8316
7935
8397
8018
8376
8101
8284
8176
8179
8229
8098
8255
8100
8226
8136
8131
8211
8052
8287
8022
8325
8020
8272
8059
8166
8153
8103
8316
8074
8362
7979
8323
7989
8240
7997
8100
8059
8043
8139
8038
8154
8078
8172
8207
8126
8281
7995
8317
7966
8404
8009
8323
7996
8183
8085
8115
8240
8117
8324
8062
8292
8076
8204
8130
8114
8192
8026
8217
8053
8267
8140
8235
8258
8153
8313
7997
8344
7948
8356
7953
8315
8020
8234
8120
8152
8182
8081
8206
8048
8174
8120
8153
8272
8080
8268
7916
8216
7908
8211
7995
8178
8120
8096
8224
8023
8317
8009
8348
8039
8294
8070
8205
8144
8105
8199
8063
8201
8092
8162
8160
8089
8267
8016
8358
7972
8375
7969
8355
8045
8273
8130
8170
8210
8086
8243
8027
8241
8053
8155
8078
8036
8131
7991
8221
8018
8265
8094
8173
8109
8045
8193
7970
8326
7983
8400
7984
8324
8009
8243
8132
8200
8248
8182
8302
8143
8204
8115
8093
8195
8041
8311
8009
8364
8007
8332
7984
8161
8071
8139
8219
8055
8267
7967
8281
7978
8229
8036
8160
8109
8094
8207
8070
8219
8069
8156
8130
8077
8223
8011
8370
7996
8398
7969
8356
7991
8278
8132
8218
8214
8114
8245
8068
8270
8126
8234
8200
8140
8227
8032
8256
7978
8243
8049
8215
8148
8185
8312
8062
8296
7915
8291
7921
8293
7993
8239
8095
8157
8159
8066
8167
8043
8129
8071
8077
8168
7999
8267
7958
8327
7949
8320
7998
8269
8113
8198
8235
8112
8305
8047
8316
8038
8290
8116
8221
8198
8131
8218
8060
8249
8108
8243
8177
8123
8223
8018
8318
7940
8349
7935
8368
8008
8289
8051
8153
8123
8060
8189
8024
8170
8047
8137
8122
8071
8188
7979
8219
7946
8240
7999
8236
8138
8172
8216
8050
8305
8006
8385
8045
8400
8079
8288
8104
8183
8191
8113
8230
8090
8195
8116
8146
8235
8080
8322
7985
8338
7942
8337
7985
8307
8147
8258
8205
8057
8163
7958
8195
7967
8173
8016
8124
8105
8046
8162
8006
8188
8000
8156
8091
8109
8200
8037
8314
7983
8391
7990
8411
8036
8345
8130
8262
8210
8181
8257
8111
8261
8118
8218
8191
8120
8265
8035
8311
8014
8336
8025
8269
8116
8189
8184
8039
8208
7921
8256
7944
8313
8049
8273
8072
8097
8072
8010
8138
8035
8186
8140
8173
8214
8042
8251
7937
8324
7949
8380
8035
8373
8103
8245
8166
8109
8206
8038
8270
8068
8296
8141
8214
8189
8098
8250
8063
8297
8078
8262
8124
8162
8210
8054
8276
7981
8372
7953
8340
7950
8259
8006
8165
8079
8075
8149
8010
8120
8033
8131
8119
8056
8206
8001
8304
7980
8322
7981
8270
8078
8216
8202
8139
8284
8015
8289
7991
8318
8057
8318
8179
8218
8179
8064
8205
8094
8195
8076
8159
8226
8077
8252
7922
8295
7893
8307
7922
8279
8008
8195
8119
8130
8204
8058
8247
8051
8224
8087
8171
8192
8090
8234
7999
8243
8033
8296
8198
8311
8271
8094
8226
7927
8295
7933
8350
7988
8323
8063
8236
8147
8154
8214
8091
8230
8111
8191
8188
8115
8262
8042
8345
7986
8347
7981
8289
8036
8221
8152
8132
8238
8026
8263
7963
8248
8000
8226
8083
8123
8129
8036
8162
8007
8158
8035
8088
8109
8013
8257
7996
8358
7941
8353
7947
8331
8041
8275
8150
8181
8217
8086
8268
8099
8269
8155
8209
8226
8117
8306
8069
8336
8051
8304
8123
8279
8268
8223
8334
8007
8258
7883
8249
7896
8225
7987
8161
8046
8052
8104
8012
8138
8035
8113
8110
8055
8208
7984
8300
7945
8337
7974
8338
8024
8235
8127
8153
8243
8107
8330
8094
8373
8098
8275
8150
8196
8221
8090
8225
8022
8205
8064
8165
8151
8083
8253
8012
8349
7950
8370
7966
8355
8025
8262
8093
8152
8180
8097
8238
8088
8188
8064
8083
8102
8003
8201
7970
8265
7951
8234
7986
8168
8112
8119
8262
8105
8360
7992
8320
7967
8242
7980
8168
8090
8142
8214
8140
8319
8216
8303
8254
8202
8300
8039
8333
7981
8373
7964
8346
8015
8262
8101
8161
8185
8086
8268
8049
8258
8020
8166
8053
8082
8145
8055
8222
7982
8188
8025
8186
8152
8102
8205
7970
8293
7946
8361
7955
8356
8031
8305
8126
8210
8199
8143
8249
8105
8216
8119
8163
8204
8087
8299
8022
8337
8003
8338
8043
8257
8108
8136
8191
8034
8263
7965
8289
7956
8253
7998
8167
8058
8058
8124
8038
8187
8069
8177
8098
8057
8188
7990
8281
7958
8385
7980
8380
8018
8320
8136
8244
8246
8193
8308
8070
8272
8067
8223
8123
8139
8193
8047
8253
8025
8273
8077
8250
8159
8160
8237
8036
8299
7961
8353
7942
8321
7963
8227
8030
8124
8079
8041
8150
8055
8196
8130
8188
8208
8054
8253
7971
8257
7866
8236
7948
8238
8086
8197
8212
8101
8267
8017
8327
8032
8324
8069
8202
8106
8129
8213
8104
8281
8117
8228
8141
8132
8214
8031
8298
7961
8362
7946
8367
8009
8342
8091
8212
8153
8123
8217
8033
8218
8054
8192
8106
8104
8185
8037
8257
8017
8293
8029
8236
8102
8169
8224
8079
8305
7989
8355
8006
8403
8056
8319
8082
8198
8160
8116
8219
8108
8230
8155
8185
8206
8075
8271
7987
8312
7945
8334
7977
8262
8044
8174
8143
8080
8220
8013
8267
7999
8243
8022
8148
8074
8077
8150
8013
8179
8012
8162
8058
8097
8167
8018
8274
7967
8354
7945
8372
7975
8332
8073
8259
8185
8188
8277
8115
8253
8074
8204
8142
8139
8229
8053
8272
8000
8301
8003
8231
8064
8159
8154
8070
8293
8029
8366
8005
8355
8011
8250
8028
8138
8094
8069
8160
8052
8186
8094
8152
8163
8043
8243
7986
8357
7990
8392
7981
8288
8036
8224
8165
8142
8232
8050
8290
8044
8313
8129
8257
8160
8117
8209
8055
8252
8049
8224
8107
8164
8184
8047
8243
7982
8378
7973
8381
7981
8294
7973
8166
8061
8081
8132
7994
8121
7993
8105
8071
8093
8225
8056
8295
7992
8325
8019
8308
8076
8191
8142
8098
8252
8043
8353
8013
8365
8048
8321
8130
8255
8215
8151
8241
8117
8276
8167
8212
8214
8104
8260
7985
8348
7974
8365
7954
8301
7996
8197
8067
8075
8132
8004
8195
7987
8187
8036
8149
8106
8078
8189
8034
8262
8046
8272
8117
8199
8165
8093
8298
8062
8435
8048
8426
8002
8330
8012
8220
8105
8148
8182
8086
8198
8071
8191
8133
8150
8256
8068
8322
7987
8303
7951
8281
8029
8242
8145
8136
8222
8021
8265
7964
8258
7941
8180
7989
8100
8091
8078
8200
8059
8209
8071
8166
8164
8085
8245
8002
8331
7946
8369
7970
8371
8039
8287
8139
8215
8241
8141
8285
8089
8274
8099
8205
8175
8113
8245
8067
8311
8055
8325
8128
8245
8139
8064
8182
7962
8270
7927
8314
7915
8283
7975
8199
8055
8104
8125
8063
8190
8094
8221
8174
8097
8160
7971
8231
7941
8348
8015
8370
8037
8264
8110
8148
8189
8066
8281
8028
8317
8047
8288
8094
8193
8143
8096
8223
8067
8237
8087
8214
8181
8136
8270
8042
8356
7986
8399
7963
8348
7961
8223
8009
8127
8115
8040
8168
8011
8185
8059
8145
8124
8078
8223
8025
8283
7997
8278
8041
8248
8145
8168
8243
8079
8325
8002
8367
8019
8380
8073
8296
8133
8181
8186
8108
8227
8078
8183
8117
8133
8211
8035
8290
7965
8346
7959
8345
8002
8297
8112
8219
8214
8112
8240
7964
8176
7934
8170
8045
8148
8122
8060
8168
7998
8180
7999
8164
8111
8134
8231
8050
8339
7997
8417
7996
8404
8024
8319
8077
8233
8187
8158
8249
8103
8241
8100
8177
8158
8102
8249
8032
8308
7987
8297
8006
8240
8076
8147
8177
8082
8322
8065
8413
8046
8317
7967
8145
7977
8049
8073
8015
8134
8028
8161
8086
8117
8183
8041
8280
7972
8352
7948
8372
7996
8315
8085
8231
8184
8155
8275
8095
8322
8088
8284
8118
8198
8191
8108
8256
8048
8259
8048
8218
8103
8144
8192
8054
8290
7971
8339
7927
8322
7937
8256
8005
8165
8084
8073
8160
8043
8174
8073
8158
8154
8095
8249
8026
8318
7997
8345
8027
8308
8103
8224
8204
8138
8298
8049
8345
8013
8336
8059
8282
8130
8194
8189
8097
8224
8072
8205
8116
8147
8196
8053
8279
7974
8341
7934
8346
7940
8284
8001
8182
8096
8091
8172
8027
8209
8004
8174
8056
8115
8137
8049
8213
8008
8254
8027
8246
8103
8188
8210
8110
8307
8022
8381
7995
8383
8005
8330
8063
8235
8150
8138
8193
8082
8208
8096
8181
8178
8110
8263
8030
8328
7973
8333
7980
8302
8045
8195
8114
8086
8199
7987
8232
7953
8242
7986
8210
8079
8133
8135
8039
8162
8021
8183
8065
8150
8193
8114
8337
8052
8407
7990
8421
8000
8358
8041
8251
8104
8146
8216
8097
8241
8067
8221
8094
8150
8194
8108
8292
8046
8302
8006
8253
8046
8177
8130
8064
8210
7954
8256
7883
8253
7899
8210
7961
8156
8082
8111
8160
8030
8142
8052
8165
8183
8140
8264
8040
8330
7967
8366
7996
8358
8070
8282
8144
8157
8233
8090
8299
8057
8329
8094
8294
8171
8224
8264
8164
8321
8123
8276
8128
8217
8213
8147
8298
8032
8371
7988
8408
7986
8344
7996
8222
8036
8090
8112
8042
8194
8056
8186
8089
8121
8166
8048
8247
8005
8304
8001
8295
8053
8232
8151
8140
8245
8042
8329
8004
8361
8018
8331
8062
8231
8141
8155
8203
8100
8238
8091
8184
8153
8110
8232
8013
8305
7944
8335
7940
8318
7973
8224
8054
8119
8139
8021
8190
7975
8205
7993
8160
8064
8096
8145
8040
8219
8023
8238
8067
8197
8152
8128
8254
8035
8343
7973
8386
7974
8367
8026
8286
8109
8196
8183
8118
8227
8093
8214
8123
8165
8201
8067
8274
8007
8315
7978
8301
8014
8237
8089
8127
8185
8021
8246
7956
8277
7947
8243
7991
8171
8078
8099
8153
8051
8192
8052
8166
8126
8110
8228
8037
8342
7989
8391
7980
8385
8024
8307
8109
8214
8196
8124
8263
8074
8281
8083
8239
8127
8150
8215
8076
8274
8042
8264
8051
8225
8128
8128
8208
8013
8288
7945
8323
7921
8300
7951
8223
8033
8142
8122
8069
8174
8056
8171
8092
8126
8179
8063
8285
8011
8348
8003
8360
8038
8305
8120
8205
8209
8112
8286
8043
8335
8032
8312
8075
8240
8158
8161
8224
8092
8234
8087
8213
8142
8134
8219
8043
8301
7955
8326
7886
8300
7922
8242
8015
8170
8123
8092
8185
8036
8216
8051
8195
8110
8110
8188
8043
8266
8023
8308
8059
8262
8126
8181
8221
8088
8314
8009
8371
7988
8372
8030
8314
8097
8197
8148
8102
8194
8069
8194
8100
8149
8189
8065
8265
7991
8334
7958
8334
7977
8277
8046
8175
8136
8081
8223
8017
8269
7994
8252
8033
8189
8110
8115
8208
8073
8252
8071
8230
8138
8179
8234
8091
8322
8002
8392
7970
8392
8004
8346
8070
8237
8155
8146
8222
8092
8252
8091
8209
8139
8131
8222
8057
8288
8002
8297
8015
8256
8078
8164
8153
8046
8228
7950
8277
7913
8271
7935
8210
8012
8136
8099
8068
8158
8049
8181
8085
8148
8181
8070
8274
8003
8358
7980
8382
8001
8343
8079
8251
8174
8160
8257
8073
8302
8056
8287
8082
8220
8154
8131
8223
8074
8267
8052
8234
8104
8156
8178
8064
8257
7968
8322
7914
8325
7922
8265
7985
8191
8070
8103
8155
8052
8189
8052
8164
8113
8108
8214
8048
8304
8015
8344
8032
8315
8099
8245
8182
8133
8266
8036
8334
8001
8339
8019
8293
8084
8206
8164
8128
8217
8095
8224
8116
8175
8183
8094
8267
8005
8338
7948
8357
7947
8295
7979
8193
8059
8097
8153
8020
8209
8011
8228
8057
8175
8119
8090
8201
8031
8261
8028
8244
8082
8188
8172
8120
8288
8033
8366
7976
8374
7984
8354
8062
8286
8158
8207
8225
8136
8267
8134
8235
8180
8173
8260
8074
8317
7999
8330
7979
8291
8012
8202
8088
8090
8180
7996
8237
7961
8267
7970
8224
8025
8155
8112
8075
8177
8053
8204
8076
8178
8165
8116
8273
8037
8367
7982
8398
7972
8366
8026
8278
8108
8177
8190
8102
8237
8056
8252
8093
8200
8163
8113
8235
8047
8278
8021
8263
8051
8199
8129
8107
8213
7994
8278
7926
8302
7915
8272
7973
8201
8055
8123
8143
8067
8177
8058
8166
8115
8114
8213
8046
8307
7988
8362
7996
8362
8040
8288
8141
8188
8222
8101
8298
8045
8320
8033
8274
8088
8201
8175
8126
8238
8071
8232
8080
8199
8152
8118
8227
7995
8290
7916
8312
7885
8282
7917
8210
8014
8132
8121
8055
8182
8049
8216
8081
8183
8164
8112
8270
8068
8328
8048
8333
8065
8266
8145
8160
8226
8067
8320
8006
8382
8014
8347
8032
8259
8109
8189
8199
8116
8235
8095
8207
8140
8142
8210
8039
8297
7979
8341
7939
8318
7964
8247
8045
8139
8130
8039
8199
7990
8245
7994
8212
8049
8139
8129
8073
8184
8033
8239
8071
8219
8147
8148
8242
8053
8339
7985
8388
7969
8375
8011
8320
8086
8207
8168
8135
8222
8084
8240
8109
8198
8177
8100
8237
8025
8304
7993
8307
8013
8245
8082
8146
8158
8031
8239
7952
8287
7940
8280
7983
8206
8057
8121
8129
8066
8180
8067
8198
8130
8148
8219
8066
8325
8013
8394
7987
8395
8010
8324
8091
8219
8170
8125
8244
8057
8280
8056
8257
8098
8175
8172
8086
8241
8044
8251
8041
8221
8114
8153
8200
8029
8260
7927
8300
7887
8306
7947
8258
8024
8186
8114
8088
8170
8048
8181
8081
8166
8162
8095
8276
8044
8336
8005
8355
8031
8304
8109
8225
8211
8116
8279
8025
8334
8010
8324
8033
8269
8120
8190
8193
8104
8231
8079
8213
8123
8152
8203
8056
8288
7979
8351
7933
8339
7931
8261
7993
8180
8091
8078
8170
8023
8215
8023
8202
8064
8127
8155
8079
8262
8044
8305
8066
8277
8130
8200
8211
8103
8309
8013
8376
7984
8375
7997
8323
8067
8239
8158
8161
8222
8113
8237
8108
8178
8166
8088
8244
8020
8323
7969
8326
7971
8271
8015
8170
8113
8071
8191
7985
8244
7972
8275
8019
8222
8088
8128
8146
8067
8210
8062
8216
8120
8176
8215
8112
8314
8021
8383
7969
8387
7983
8345
8045
8256
8144
8164
8217
8090
8245
8071
8238
8111
8161
8181
8066
8252
8017
8285
8007
8249
8065
8169
8139
8066
8228
7971
8281
7923
8312
7941
8245
7995
8168
8081
8095
8165
8067
8193
8088
8171
8181
8126
8278
8048
8366
8007
8395
8004
8351
8069
8271
8160
8176
8250
8084
8293
8042
8297
8055
8250
8120
8168
8201
8098
8253
8059
8231
8078
8166
8150
8075
8249
7975
8312
7911
8324
7903
8273
7955
8191
8042
8107
8137
8055
8205
8058
8202
8102
8155
8201
8077
8284
8031
8335
8035
8330
8097
8256
8174
8153
8262
8052
8339
8000
8355
8004
8314
8050
8223
8138
8156
8206
8093
8220
8095
8181
8160
8111
8238
8007
8304
7937
8322
7918
8290
7973
8221
8062
8122
8159
8040
8213
7987
8214
8016
8203
8098
8134
8191
8070
8263
8053
8259
8081
8208
8166
8122
8261
8032
8356
7988
8410
7999
8379
8030
8276
8114
8196
8190
8115
8235
8107
8242
8138
8175
8209
8074
8270
7999
8310
7979
8283
8002
8210
8084
8102
8161
7994
8236
7948
8289
7963
8257
8005
8184
8094
8104
8180
8072
8217
8091
8195
8155
8138
8255
8044
8347
7987
8391
7973
8369
8005
8287
8092
8203
8201
8130
8271
8075
8282
8077
8238
8131
8143
8210
8069
8259
8024
8253
8039
8200
8111
8103
8196
8005
8280
7932
8319
7916
8303
7968
8243
8050
8167
8140
8081
8199
8076
8199
8123
8161
8208
8083
8307
8035
8366
8019
8360
8031
8282
8121
8197
8219
8100
8292
8027
8323
8017
8298
8064
8222
8127
8132
8202
8081
8223
8077
8194
8133
8120
8210
8014
8277
7920
8317
7892
8293
7929
8233
8004
8145
8106
8065
8186
8025
8211
8054
8204
8120
8138
8225
8075
8295
8049
8317
8069
8262
8141
8188
8249
8092
8327
8003
8368
7979
8347
8008
8293
8089
8196
8162
8114
8211
8090
8211
8112
8153
8192
8067
8269
7988
8324
7939
8313
7956
8242
8017
8139
8116
8033
8193
7976
8239
7975
8240
8025
8180
8106
8102
8199
8076
8263
8101
8261
8178
8200
8267
8102
8352
8026
8411
7991
8407
8005
8336
8081
8234
8157
8137
8216
8079
8246
8089
8201
8145
8126
8219
8043
8276
8000
8297
7998
8218
8044
8126
8142
8037
8232
7941
8270
7916
8279
7958
8222
8027
8146
8117
8086
8179
8077
8206
8116
8178
8214
8112
8313
8022
8365
7971
8373
7999
8322
8075
8235
8164
8135
8248
8064
8297
8043
8281
8080
8206
8140
8114
8209
8061
8239
8052
8222
8090
8145
8170
8028
8255
7952
8315
7906
8336
7950
8283
8009
8190
8096
8111
8176
8063
8201
8068
8196
8142
8134
8245
8072
8331
8032
8352
8037
8308
8104
8225
8182
8122
8273
8024
8336
7993
8329
8009
8271
8067
8182
8148
8112
8233
8095
8218
8103
8165
8188
8077
8264
7978
8324
7921
8324
7918
8275
7985
8190
8081
8093
8161
8017
8214
8006
8231
8060
8185
8148
8118
8239
8066
8292
8072
8276
8124
8207
8199
8106
8290
8016
8360
7967
8375
7982
8335
8038
8243
8130
8154
8197
8094
8236
8101
8196
8136
8115
8221
8038
8302
7984
8324
7977
8267
8009
8179
8098
8087
8195
7995
8257
7967
8277
7976
8230
8046
8160
8127
8092
8210
8078
8234
8116
8208
8219
8139
8296
8021
8353
7954
8379
7961
8349
8021
8266
8131
8187
8228
8122
8277
8076
8268
8102
8197
8164
8101
8219
8037
8275
8021
8242
8037
8157
8109
8057
8206
7966
8277
7911
8304
7928
8289
7994
8205
8075
8130
8161
8076
8201
8092
8192
8161
8143
8255
8074
8344
8016
8373
7999
8344
8045
8266
8142
8168
8236
8082
8300
8022
8317
8037
8269
8078
8169
8145
8098
8210
8057
8217
8078
8177
8153
8090
8236
7995
8315
7920
8333
7913
8301
7964
8227
8050
8140
8151
8058
8213
8045
8214
8081
8179
8166
8098
8259
8047
8308
8028
8298
8068
8240
8160
8143
8256
8062
8349
8010
8393
8007
8341
8035
8252
8108
8171
8193
8098
8221
8077
8189
8149
8127
8225
8027
8297
7956
8324
7924
8281
7949
8210
8048
8111
8148
8022
8223
7986
8239
7996
8217
8066
8165
8175
8106
8257
8086
8267
8102
8221
8167
8144
8268
8045
8355
7981
8397
7973
8375
8019
8297
8103
8202
8183
8127
8234
8083
8245
8114
8176
8165
8085
8240
8015
8287
7985
8272
8000
8202
8076
8097
8161
7987
8240
7942
8293
7941
8283
7997
8205
8078
8130
8168
8087
8225
8105
8223
8170
8160
8253
8075
8346
8001
8384
7980
8373
8015
8298
8107
8207
8198
8117
8259
8059
8302
8070
8256
8084
8145
8155
8081
8249
8044
8247
8057
8196
8104
8092
8185
7983
8258
7913
8312
7900
8309
7949
8239
8026
8155
8126
8086
8193
8070
8232
8116
8191
8206
8126
8308
8057
8359
8028
8349
8044
8286
8125
8185
8213
8087
8290
8009
8337
7993
8313
8041
8242
8106
8161
8191
8095
8213
8081
8191
8128
8117
8195
8015
8262
7933
8309
7900
8307
7933
8248
8020
8165
8128
8082
8201
8020
8231
8036
8216
8097
8150
8194
8094
8275
8070
8295
8069
8253
8148
8175
8239
8084
8329
8006
8392
7984
8384
8017
8315
8086
8218
8166
8129
8217
8084
8209
8101
8156
8164
8061
8235
7989
8302
7952
8292
7961
8226
8036
8138
8135
8045
8232
7978
8272
7972
8277
8025
8215
8100
8138
8186
8087
8245
8098
8232
8150
8169
8231
8069
8332
8006
8388
7963
8382
7992
8333
8068
8225
8161
8140
8227
8072
8261
8067
8220
8112
8141
8192
8068
8255
8013
8261
8020
8217
8067
8126
8156
8030
8233
7933
8299
7919
8305
7952
8257
8039
8192
8142
8121
8212
8097
8246
8133
8196
8217
8129
8311
8054
8366
7999
8363
7993
8308
8078
8228
8178
8137
8264
8049
8311
8016
8291
8046
8224
8103
8131
8185
8078
8241
8063
8212
8101
8131
8163
8021
8247
7935
8311
7904
8322
7913
8268
7996
8203
8103
8119
8187
8065
8216
8058
8205
8122
8161
8222
8092
8304
8045
8330
8045
8293
8108
8215
8198
8120
8286
8024
8355
7986
8359
8004
8300
8068
8219
8154
8131
8202
8092
8212
8096
8161
8161
8061
8228
7970
8287
7913
8299
7916
8259
7983
8186
8091
8089
8190
8022
8247
8005
8254
8037
8202
8118
8144
8228
8107
8295
8097
8275
8140
8215
8217
8119
8299
8018
8375
7970
8387
7981
8355
8043
8255
8130
8165
8202
8102
8238
8092
8213
8120
8133
8201
8046
8277
7985
8285
7964
8243
7998
8159
8100
8064
8195
7978
8269
7942
8300
7962
8262
8037
8191
8131
8125
8213
8095
8237
8123
8197
8192
8129
8284
8042
8377
7993
8384
7965
8333
8010
8249
8117
8161
8206
8075
8262
8035
8262
8055
8206
8126
8125
8200
8054
8251
8032
8228
8048
8152
8118
8056
8215
7964
8274
7903
8318
7918
8301
7989
8232
8097
8162
8182
8101
8230
8095
8220
8164
8176
8237
8085
8323
8023
8346
8003
8333
8048
8256
8138
8156
8238
8068
8305
8008
8327
8018
8287
8063
8207
8153
8115
8201
8082
8219
8082
8172
8140
8073
8205
7979
8277
7911
8320
7901
8300
7950
8226
8059
8145
8151
8060
8222
8056
8266
8084
8213
8151
8148
8256
8083
8304
8054
8292
8089
8245
8171
8158
8256
8043
8340
7983
8368
7971
8339
8015
8264
8098
8186
8189
8111
8220
8090
8204
8130
8136
8196
8034
8255
7964
8301
7926
8276
7954
8213
8055
8117
8158
8033
8238
7979
8276
7991
8255
8057
8201
8152
8146
8253
8109
8275
8114
8234
8178
8148
8252
8047
8350
7976
8380
7962
8366
7992
8281
8074
8192
8172
8120
8242
8086
8257
8083
8185
8121
8099
8201
8020
8258
7988
8258
8008
8195
8082
8108
8172
8004
8259
7943
8317
7938
8310
7995
8246
8082
8177
8173
8114
8236
8113
8225
8159
8173
8227
8081
8318
8002
8365
7974
8354
8006
8290
8096
8202
8187
8111
8270
8037
8299
8029
8284
8086
8197
8140
8097
8203
8048
8227
8056
8198
8115
8113
8191
8005
8270
7936
8331
7912
8324
7950
8256
8021
8174
8125
8111
8206
8070
8241
8105
8214
8174
8133
8272
8068
8316
8027
8336
8046
8282
8119
8191
8206
8090
8293
8008
8354
7987
8339
8022
8261
8088
8182
8168
8103
8203
8074
8187
8096
8125
8167
8024
8241
7935
8294
7902
8311
7927
8259
8014
8179
8131
8087
8205
8024
8243
8023
8263
8097
8214
8180
8128
8262
8081
8301
8079
8257
8146
8181
8220
8081
8314
8000
8376
7965
8369
7980
8322
8055
8242
8160
8162
8210
8081
8216
8086
8173
8137
8089
8216
8020
8278
7956
8284
7947
8225
8011
8141
8114
8059
8220
7983
8280
7970
8304
8013
8273
8091
8191
8188
8126
8246
8102
8253
8147
8182
8209
8108
8300
8010
8360
7966
8367
7967
8340
8044
8249
8137
8147
8222
8071
8247
8048
8242
8081
8156
8146
8082
8221
8029
8268
8026
8234
8069
8149
8151
8053
8233
7956
8287
7919
8321
7935
8285
8017
8217
8119
8139
8203
8102
8250
8127
8213
8187
8145
8257
8047
8332
8006
8358
8010
8326
8069
8245
8161
8144
8242
8047
8296
8010
8314
8031
8258
8084
8178
8170
8094
8225
8053
8206
8075
8142
8140
8039
8213
7951
8298
7904
8328
7915
8295
7982
8222
8062
8128
8160
8064
8228
8069
8252
8116
8205
8202
8139
8290
8079
8338
8051
8289
8090
8226
8177
8136
8268
8036
8342
7976
8358
7971
8322
8041
8237
8124
8153
8178
8084
8188
8073
8176
8142
8089
8211
7999
8274
7935
8302
7920
8269
7971
8211
8077
8119
8175
8037
8259
8015
8290
8043
8260
8103
8198
8198
8137
8272
8095
8280
8115
8219
8180
8128
8271
8036
8349
7968
8376
7955
8352
8012
8273
8102
8181
8183
8103
8219
8072
8234
8103
8168
8163
8069
8224
7996
8280
7968
8247
7991
8185
8081
8095
8177
7999
8267
7949
8312
7968
8301
8026
8239
8114
8176
8203
8123
8257
8127
8232
8191
8166
8266
8061
8332
7976
8352
7947
8336
8000
8265
8096
8183
8185
8097
8249
8032
8285
8043
8241
8101
8155
8179
8078
8233
8039
8222
8026
8162
8090
8090
8188
7999
8277
7930
8334
7920
8317
7961
8253
8046
8177
8155
8119
8225
8096
8250
8129
8191
8203
8112
8286
8043
8332
8006
8341
8036
8272
8116
8176
8212
8080
8289
8014
8337
7996
8314
8039
8234
8107
8157
8185
8085
8208
8067
8182
8111
8111
8183
8005
8259
7934
8319
7902
8329
7946
8257
8022
8174
8140
8096
8225
8046
8274
8070
8252
8128
8192
8217
8115
8285
8067
8297
8068
8247
8135
8159
8221
8068
8305
7984
8364
7961
8365
8007
8305
8069
8209
8153
8112
8203
8083
8208
8098
8155
8159
8064
8231
7980
8277
7931
8286
7950
8235
8030
8159
8143
8065
8232
7993
8293
7982
8293
8043
8239
8129
8178
8220
8115
8260
8096
8231
8150
8169
8233
8094
8326
8003
8380
7959
8381
7984
8315
8052
8228
8146
8138
8221
8068
8246
8058
8215
8101
8138
8177
8047
8238
7989
8247
7987
8200
8054
8133
8154
8038
8251
7971
8329
7944
8330
7964
8265
8045
8202
8156
8145
8221
8109
8249
8140
8201
8209
8113
8299
8032
8352
7984
8367
8008
8315
8079
8220
8160
8129
8245
8038
8289
8009
8292
8034
8218
8110
8149
8191
8071
8216
8047
8199
8073
8123
8152
8018
8242
7940
8313
7908
8331
7940
8295
8004
8217
8122
8147
8210
8098
8250
8097
8244
8141
8175
8235
8099
8306
8046
8337
8044
8297
8100
8216
8176
8107
8255
7997
8323
7965
8342
7989
8292
8054
8205
8138
8126
8193
8077
8198
8079
8136
8139
8046
8210
7968
8295
7927
8311
7924
8277
7987
8202
8088
8109
8194
8041
8253
8029
8286
8074
8257
8146
8173
8230
8104
8283
8083
8268
8127
8202
8193
8103
8273
8008
8357
7964
8387
7972
8345
8025
8256
8117
8165
8183
8083
8221
8070
8198
8108
8119
8177
8039
8247
7962
8268
7953
8240
8001
8182
8104
8102
8210
8007
8283
7967
8312
7989
8301
8066
8221
8158
8140
8222
8105
8233
8120
8201
8187
8131
8269
8028
8346
7969
8376
7964
8352
8020
8265
8117
8174
8202
8094
8260
8049
8271
8071
8211
8121
8123
8196
8049
8234
8003
8207
8017
8158
8107
8074
8203
7973
8286
7924
8330
7927
8317
7991
8244
8089
8183
8193
8122
8249
8116
8246
8167
8183
8241
8100
8320
8023
8355
7999
8339
8027
8258
8114
8156
8208
8061
8274
7997
8314
8005
8282
8053
8202
8124
8121
8188
8066
8196
8052
8152
8103
8066
8193
7978
8273
7918
8334
7916
8331
7975
8263
8071
8183
8168
8106
8243
8072
8267
8093
8230
8170
8151
8259
8089
8302
8047
8305
8070
8245
8154
8156
8235
8058
8317
7981
8362
7970
8338
8001
8269
8074
8172
8160
8098
8200
8074
8191
8102
8109
8168
8024
8239
7950
8294
7924
8286
7964
8227
8049
8151
8163
8072
8258
8026
8318
8030
8296
8085
8229
8173
8147
8243
8097
8264
8101
8227
8162
8163
8237
8054
8331
7984
8376
7953
8371
7984
8297
8056
8203
8161
8124
8209
8068
8223
8072
8193
8118
8090
8186
8013
8251
7966
8245
7974
8199
8062
8124
8166
8027
8261
7967
8323
7956
8320
8003
8267
8085
8205
8186
8136
8245
8107
8223
8148
8177
8229
8091
8317
8013
8368
7988
8380
8003
8308
8082
8218
8163
8116
8243
8041
8288
8024
8264
8068
8193
8132
8101
8191
8042
8213
8018
8172
8065
8112
8158
8004
8251
7949
8330
7916
8334
7946
8281
8031
8221
8148
8151
8231
8106
8264
8117
8225
8185
8157
8250
8075
8320
8022
8339
8020
8292
8093
8201
8184
8107
8273
8026
8334
7993
8332
8008
8261
8067
8187
8136
8097
8179
8055
8180
8077
8121
8141
8018
8221
7949
8307
7920
8322
7933
8278
8010
8205
8118
8115
8208
8061
8289
8069
8286
8109
8222
8183
8137
8250
8070
8286
8059
8258
8120
8202
8212
8111
8302
8011
8361
7958
8369
7972
8321
8030
8229
8121
8143
8187
8083
8212
8075
8172
8119
8087
8187
7996
8261
7945
8286
7950
8254
8010
8180
8115
8092
8213
8014
8284
8000
8322
8031
8302
8111
8221
8188
8137
8253
8109
8240
8134
8201
8200
8111
8281
8008
8347
7950
8369
7966
8332
8010
8247
8110
8155
8195
8081
8249
8061
8252
8085
8182
8136
8089
8203
8010
8226
7985
8213
8025
8167
8128
8077
8221
7984
8302
7945
8333
7948
8311
8027
8242
8127
8171
8201
8122
8245
8118
8216
8178
8155
8258
8062
8329
7987
8347
7980
8332
8028
8246
8120
8156
8222
8069
8292
8031
8310
8031
8261
8075
8175
8139
8087
8183
8035
8196
8043
8148
8115
8052
8211
7971
8289
7912
8333
7917
8320
7974
8253
8089
8181
8189
8122
8255
8091
8272
8124
8220
8205
8141
8280
8063
8313
8025
8283
8048
8227
8140
8139
8241
8037
8310
7982
8348
7978
8323
8029
8246
8111
8168
8178
8088
8185
8057
8159
8095
8073
8174
7996
8273
7943
8319
7928
8292
7974
8243
8074
8152
8177
8075
8265
8039
8313
8059
8282
8121
8212
8198
8131
8269
8092
8285
8098
8230
8171
8149
8255
8040
8343
7968
8376
7949
8360
7991
8272
8070
8182
8156
8097
8215
8068
8208
8082
8147
8132
8057
8195
7966
8254
7958
8255
7989
8215
8079
8120
8183
8024
8271
7977
8331
7987
8331
8052
8287
8146
8207
8228
8142
8259
8110
8219
8148
8149
8239
8060
8321
7987
8364
7966
8363
8008
8296
8085
8187
8167
8100
8244
8039
8268
8041
8238
8081
8141
8145
8068
8223
8019
8230
8031
8186
8093
8103
8188
7999
8267
7927
8327
7920
8331
7969
8280
8073
8215
8168
8142
8238
8106
8252
8133
8200
8203
8111
8287
8046
8337
8008
8334
8024
8280
8106
8186
8202
8090
8285
8008
8324
7988
8303
8029
8240
8097
8155
8166
8077
8183
8049
8162
8079
8098
8171
8005
8257
7941
8328
7918
8330
7947
8273
8041
8204
8158
8127
8244
8077
8283
8077
8259
8126
8178
8201
8104
8282
8060
8288
8062
8248
8115
8156
8204
8060
8293
7977
8362
7964
8363
7997
8304
8065
8217
8164
8141
8196
8072
8183
8077
8135
8148
8062
8226
7986
8292
7949
8303
7966
8256
8046
8163
8147
8080
8240
8019
8311
8013
8309
8060
8265
8134
8186
8216
8112
8257
8092
8241
8147
8173
8221
8083
8307
7996
8371
7955
8376
7975
8308
8039
8221
8138
8124
8206
8057
8233
8047
8205
8091
8124
8149
8037
8211
7985
8226
7969
8195
8041
8144
8156
8050
8252
7974
8329
7960
8354
8003
8319
8075
8236
8172
8172
8236
8117
8248
8136
8194
8194
8111
8271
8022
8342
7977
8360
7989
8306
8060
8226
8153
8124
8235
8039
8282
8011
8283
8044
8220
8094
8114
8152
8049
8202
8030
8187
8063
8117
8148
8021
8250
7958
8337
7934
8363
7954
8320
8030
8245
8146
8174
8236
8117
8269
8101
8253
8150
8173
8219
8093
8303
8039
8321
8028
8280
8085
8210
