EMG
7967
8037
8090
7924
8191
7851
8230
7838
8213
7893
8124
7976
8040
8061
7974
8108
7954
8089
7998
8010
8102
7915
8196
7834
8269
7800
8248
7832
8176
7920
8068
8030
7953
8112
7890
8137
7891
8105
7946
8025
8036
7948
8114
7900
8151
7910
8121
7994
8047
8120
7938
8226
7847
8286
7817
8275
7853
8200
7941
8105
8031
8004
8092
7954
8104
7974
8058
8038
7976
8147
7885
8227
7838
8228
7857
8174
7931
8068
8044
7938
8135
7853
8184
7822
8162
7858
8098
7940
8012
8031
7936
8078
7916
8072
7963
8014
8069
7921
8177
7835
8262
7795
8272
7818
8211
7901
8107
7996
7993
8103
7925
8128
7913
8107
7960
8038
8048
7951
8123
7885
8165
7879
8142
7943
8052
8053
7934
8163
7826
8222
7789
8234
7811
8167
7892
8069
7979
7980
8057
7934
8077
7948
8045
8026
7964
8132
7883
8216
7836
8260
7849
8217
7919
8129
8034
8014
8139
7917
8208
7879
8201
7912
8132
7988
8057
8067
7971
8125
7947
8131
7973
8051
8066
7952
8168
7853
8250
7796
8270
7799
8213
7862
8127
7961
8006
8055
7933
8108
7922
8100
7968
8034
8048
7945
8135
7889
8202
7881
8194
7944
8119
8049
8011
8169
7901
8240
7847
8269
7849
8212
7919
8133
8009
8027
8083
7973
8113
7978
8077
8039
7987
8140
7889
8219
7816
8260
7810
8224
7853
8127
7965
8016
8071
7907
8139
7863
8135
7882
8101
7952
8014
8049
7943
8114
7911
8135
7949
8095
8047
7997
8163
7894
8255
7825
8297
7819
8264
7878
8171
7973
8058
8067
7984
8127
7964
8120
7991
8042
8071
7955
8164
7881
8211
7853
8203
7896
8125
7985
8018
8102
7898
8174
7819
8207
7816
8161
7879
8081
7973
7997
8049
7945
8091
7946
8061
8003
7996
8124
7901
8223
7836
8286
7822
8263
7864
8185
7961
8080
8078
7970
8159
7920
8180
7930
8125
7994
8037
8081
7955
8149
7912
8166
7929
8119
8006
8007
8117
7900
8216
7813
8252
7791
8233
7832
8148
7918
8042
8013
7961
8079
7936
8079
7970
8037
8056
7952
8165
7876
8245
7854
8248
7892
8190
7981
8087
8098
7974
8194
7886
8238
7877
8213
7928
8127
8010
8041
8087
7972
8123
7958
8119
8013
8024
8109
7923
8215
7837
8277
7799
8260
7823
8194
7911
8086
8010
7969
8094
7918
8124
7921
8092
7984
8016
8071
7936
8143
7895
8188
7910
8156
7990
8074
8111
7961
8218
7865
8272
7829
8285
7869
8209
7955
8115
8044
8020
8110
7976
8118
7998
8058
8077
7973
8175
7882
8244
7836
8249
7844
8195
7920
8094
8022
7962
8126
7879
8179
7854
8158
7898
8095
7982
8011
8070
7948
8123
7934
8118
7986
8060
8103
7955
8206
7875
8296
7822
8303
7848
8248
7919
8140
8020
8036
8111
7963
8144
7957
8112
8013
8041
8095
7956
8173
7883
8212
7887
8179
7944
8094
8051
7968
8150
7862
8217
7815
8232
7835
8175
7913
8076
8004
7993
8078
7956
8098
7972
8055
8054
7984
8164
7887
8246
7834
8296
7843
8245
7917
8150
8023
8042
8124
7946
8191
7909
8190
7950
8124
8020
8036
8105
7960
8155
7934
8157
7969
8082
8062
7974
8169
7874
8256
7807
8276
7803
8225
7878
8145
7967
8034
8070
7971
8110
7949
8092
7996
8032
8087
7940
8183
7878
8234
7870
8226
7931
8150
8034
8035
8147
7924
8227
7872
8247
7874
8213
7948
8114
8038
8026
8112
7976
8123
7983
8087
8044
8000
8153
7899
8243
7822
8291
7811
8248
7869
8169
7966
8057
8086
7955
8151
7918
8149
7932
8104
8008
8019
8102
7945
8163
7918
8179
7950
8125
8048
8022
8151
7914
8252
7845
8302
7833
8258
7893
8178
7979
8073
8068
7992
8118
7975
8106
8012
8053
8095
7949
8198
7879
8258
7854
8247
7890
8169
7979
8062
8100
7947
8187
7882
8218
7874
8190
7932
8099
8015
8015
8099
7966
8136
7963
8109
8023
8018
8141
7921
8238
7835
8298
7816
8277
7863
8210
7956
8108
8066
8004
8140
7944
8159
7966
8115
8031
8025
8112
7941
8178
7905
8199
7920
8158
7993
8045
8113
7933
8212
7852
8263
7829
8257
7872
8181
7960
8074
8051
8002
8112
7972
8107
8004
8049
8092
7961
8199
7879
8273
7846
8267
7869
8209
7954
8104
8073
7994
8177
7925
8218
7906
8186
7954
8115
8036
8034
8118
7962
8153
7958
8137
8019
8054
8119
7937
8216
7851
8289
7811
8296
7849
8229
7934
8126
8032
8017
8116
7962
8141
7971
8107
8028
8028
8119
7939
8201
7889
8224
7898
8186
7970
8095
8090
7984
8194
7890
8262
7859
8262
7881
8193
7963
8094
8053
8017
8117
7980
8122
8008
8065
8096
7974
8188
7880
8273
7830
8291
7849
8240
7928
8133
8040
8031
8141
7939
8189
7918
8173
7958
8104
8038
8020
8117
7948
8158
7932
8149
7991
8079
8085
7958
8189
7864
8270
7818
8293
7842
8239
7914
8150
8022
8046
8106
7986
8142
7983
8110
8038
8034
8140
7946
8215
7883
8252
7876
8220
7938
8134
8057
8021
8162
7917
8241
7879
8265
7898
8203
7968
8103
8060
8016
8125
7976
8132
7993
8077
8063
7980
8173
7884
8256
7824
8297
7835
8263
7894
8169
8000
8065
8109
7962
8166
7938
8160
7968
8106
8047
8020
8131
7945
8188
7922
8186
7962
8119
8061
7997
8173
7902
8264
7845
8311
7859
8263
7922
8182
8010
8067
8088
7996
8137
7985
8110
8039
8038
8135
7947
8215
7874
8269
7854
8235
7902
8168
8011
8056
8127
7946
8208
7891
8236
7904
8194
7969
8099
8056
8015
8126
7972
8156
7985
8112
8055
8014
8164
7917
8258
7850
8315
7835
8304
7893
8213
7982
8107
8094
8004
8161
7961
8156
7983
8106
8053
8015
8135
7937
8203
7902
8204
7924
8140
8016
8036
8129
7922
8228
7852
8278
7841
8260
7897
8168
7988
8074
8080
8004
8127
7987
8110
8026
8044
8123
7953
8218
7870
8282
7847
8270
7891
8212
7988
8112
8110
7996
8202
7933
8228
7925
8197
7986
8114
8065
8016
8135
7963
8170
7961
8129
8021
8044
8132
7921
8231
7848
8293
7826
8296
7858
8216
7954
8126
8067
8025
8138
7975
8148
7989
8101
8058
8021
8154
7942
8231
7898
8242
7913
8190
7993
8095
8117
7982
8220
7903
8279
7880
8268
7917
8198
7999
8096
8087
8018
8132
7987
8128
8022
8057
8115
7958
8198
7870
8276
7820
8285
7850
8226
7935
8130
8053
8013
8144
7947
8201
7938
8171
7990
8104
8072
8019
8145
7957
8198
7953
8170
8014
8092
8116
7968
8228
7884
8306
7845
8317
7870
8251
7947
8149
8049
8050
8135
7994
8145
7994
8101
8056
8011
8147
7923
8211
7866
8243
7870
8204
7944
8121
8062
8008
8173
7912
8240
7882
8259
7911
8189
7986
8095
8081
8015
8146
7988
8150
8022
8094
8112
7989
8207
7901
8301
7850
8325
7866
8274
7934
8187
8047
8069
8139
7985
8196
7954
8160
8001
8099
8071
8012
8150
7939
8197
7920
8176
7965
8095
8066
7980
8177
7887
8266
7838
8292
7850
8243
7926
8156
8023
8056
8106
7999
8140
8004
8109
8062
8034
8163
7943
8244
7879
8292
7871
8255
7942
8179
8057
8073
8169
7958
8233
7913
8255
7929
8187
7998
8100
8083
8009
8148
7971
8159
7989
8093
8074
7991
8175
7890
8269
7833
8313
7832
8275
7896
8186
7998
8086
8112
7995
8167
7966
8156
8004
8095
8084
8012
8178
7942
8229
7920
8222
7957
8158
8067
8057
8189
7943
8273
7883
8317
7880
8283
7945
8184
8030
8078
8109
8007
8144
7998
8114
8048
8026
8136
7927
8228
7854
8287
7838
8265
7892
8192
7992
8077
8106
7972
8186
7924
8219
7940
8185
8004
8096
8092
8018
8166
7967
8185
7984
8142
8069
8049
8174
7940
8270
7865
8335
7857
8321
7904
8228
7996
8125
8099
8028
8158
7988
8158
8008
8094
8078
7997
8170
7917
8238
7887
8229
7915
8175
8018
8080
8129
7959
8226
7889
8267
7872
8255
7923
8176
8010
8075
8105
8012
8148
7998
8140
8049
8062
8144
7963
8250
7891
8319
7858
8320
7899
8245
7988
8143
8106
8028
8186
7963
8217
7955
8170
8010
8084
8090
8003
8157
7941
8186
7937
8142
8019
8060
8120
7937
8226
7855
8302
7836
8298
7878
8235
7966
8124
8058
8030
8138
7992
8150
8012
8101
8087
8010
8191
7938
8273
7897
8280
7913
8232
7997
8133
8119
8022
8218
7932
8268
7907
8269
7948
8190
8026
8087
8102
8010
8153
7986
8143
8015
8054
8115
7962
8215
7870
8296
7827
8303
7851
8246
7940
8150
8055
8036
8148
7981
8188
7967
8167
8019
8089
8102
8009
8177
7945
8222
7940
8192
8006
8116
8125
7997
8234
7907
8310
7866
8312
7889
8249
7965
8154
8059
8052
8134
8006
8148
8015
8095
8075
8009
8171
7914
8263
7862
8288
7874
8242
7946
8147
8062
8034
8169
7944
8235
7911
8247
7952
8184
8024
8084
8109
8012
8162
7987
8169
8026
8106
8118
7992
8222
7906
8316
7852
8336
7870
8285
7934
8192
8034
8083
8141
8000
8178
7978
8156
8018
8084
8105
7988
8196
7930
8235
7911
8210
7965
8135
8075
8023
8194
7915
8268
7865
8300
7883
8248
7956
8162
8044
8062
8124
8016
8154
8015
8116
8079
8025
8183
7935
8274
7866
8319
7872
8282
7935
8194
8045
8088
8153
7974
8219
7939
8228
7957
8180
8034
8084
8113
8006
8170
7964
8176
7989
8116
8082
8011
8194
7916
8281
7852
8325
7844
8285
7914
8200
8010
8104
8114
8011
8166
7988
8145
8032
8081
8111
7999
8211
7930
8275
7905
8250
7948
8177
8059
8072
8168
7957
8258
7892
8292
7893
8259
7956
8169
8044
8069
8120
8005
8151
8006
8124
8059
8031
8158
7937
8256
7864
8319
7853
8299
7911
8221
8006
8113
8113
8000
8195
7954
8213
7961
8158
8044
8079
8126
7999
8191
7963
8210
7981
8163
8072
8071
8184
7953
8274
7880
8333
7864
8307
7905
8225
7992
8117
8095
8026
8153
8003
8149
8029
8086
8109
7993
8209
7915
8274
7881
8271
7920
8213
8022
8108
8128
7985
8222
7911
8265
7905
8249
7957
8167
8040
8067
8128
8009
8182
8004
8156
8057
8077
8170
7966
8257
7878
8330
7857
8328
7893
8256
7979
8151
8092
8036
8175
7980
8195
7979
8153
8036
8072
8122
7986
8202
7930
8219
7945
8184
8028
8093
8138
7970
8238
7886
8307
7861
8300
7899
8234
7982
8142
8077
8043
8146
8010
8154
8037
8099
8120
8009
8214
7923
8296
7883
8307
7903
8253
7979
8151
8106
8036
8200
7947
8248
7919
8250
7967
8165
8046
8070
8128
8001
8184
7987
8165
8031
8089
8129
7975
8227
7886
8321
7841
8332
7873
8266
7950
8183
8063
8082
8155
8005
8191
8005
8152
8054
8083
8134
7990
8220
7936
8256
7934
8220
7994
8135
8115
8023
8223
7927
8294
7884
8311
7903
8245
7979
8149
8072
8051
8139
7999
8145
8028
8090
8104
8009
8200
7923
8294
7861
8312
7879
8274
7941
8174
8058
8061
8163
7969
8225
7945
8221
7977
8167
8063
8074
8143
7995
8200
7974
8196
8016
8130
8117
8013
8221
7921
8320
7866
8346
7870
8283
7940
8189
8034
8094
8131
8014
8173
7999
8142
8047
8070
8136
7969
8220
7914
8271
7908
8243
7959
8167
8071
8054
8181
7944
8261
7896
8291
7916
8252
7977
8161
8072
8061
8148
8013
8172
8031
8134
8103
8037
8202
7938
8296
7869
8335
7873
8306
7932
8222
8037
8109
8138
8007
8200
7961
8209
7987
8147
8055
8060
8143
7982
8200
7947
8203
7978
8144
8069
8042
8194
7939
8282
7871
8327
7866
8301
7930
8217
8024
8121
8118
8034
8173
8020
8156
8059
8089
8153
7997
8242
7917
8299
7899
8284
7945
8219
8050
8109
8158
7990
8238
7923
8280
7922
8246
7977
8156
8067
8060
8146
7993
8158
7997
8139
8073
8040
8171
7944
8266
7868
8328
7854
8319
7896
8238
7989
8133
8107
8026
8182
7983
8202
8001
8146
8068
8062
8165
7983
8239
7945
8250
7973
8196
8063
8099
8172
7980
8273
7900
8328
7871
8304
7922
8225
8007
8131
8093
8032
8142
8009
8141
8041
8077
8135
7991
8223
7907
8305
7869
8301
7899
8234
7991
8131
8117
8013
8204
7948
8254
7937
8232
7988
8163
8080
8061
8152
8000
8194
7995
8169
8053
8097
8165
7990
8271
7894
8342
7862
8341
7894
8269
7975
8159
8082
8055
8162
8001
8186
8000
8135
8054
8053
8154
7968
8232
7920
8252
7929
8213
7999
8113
8118
7999
8226
7911
8294
7882
8302
7923
8230
8006
8138
8098
8055
8157
8015
8171
8046
8114
8137
8014
8231
7925
8315
7879
8329
7890
8279
7965
8181
8087
8070
8179
7980
8231
7950
8228
7992
8146
8077
8050
8150
7976
8200
7965
8184
8020
8114
8130
8003
8235
7911
8326
7857
8330
7884
8280
7954
8186
8056
8095
8149
8021
8188
8019
8148
8076
8069
8175
7987
8263
7930
8302
7929
8264
7986
8172
8100
8065
8207
7953
8273
7908
8290
7930
8229
7994
8142
8083
8043
8146
8007
8167
8023
8120
8108
8018
8208
7915
8295
7862
8331
7869
8293
7937
8206
8046
8100
8152
8005
8212
7969
8210
8002
8144
8082
8058
8179
7982
8228
7958
8225
8003
8154
8106
8055
8215
7943
8305
7874
8341
7885
8299
7942
8207
8045
8117
8135
8030
8165
8022
8134
8067
8068
8168
7976
8251
7907
8307
7895
8276
7942
8201
8048
8094
8159
7980
8241
7925
8275
7939
8229
8007
8147
8091
8054
8166
8014
8193
8021
8152
8101
8069
8207
7957
8297
7880
8355
7874
8329
7929
8239
8020
8137
8130
8032
8184
7988
8193
8005
8127
8075
8045
8174
7961
8240
7937
8242
7966
8180
8061
8073
8180
7964
8271
7891
8321
7884
8298
7935
8218
8031
8119
8127
8040
8163
8032
8163
8070
8085
8169
7990
8259
7911
8321
7889
8321
7923
8234
8026
8129
8142
8013
8218
7950
8251
7946
8218
8004
8127
8090
8045
8163
7987
8200
7995
8161
8072
8071
8168
7959
8276
7883
8342
7858
8328
7898
8250
7991
8154
8102
8044
8174
8010
8178
8029
8139
8094
8054
8190
7968
8269
7933
8276
7951
8225
8043
8123
8154
8007
8251
7916
8310
7900
8296
7934
8223
8023
8122
8108
8043
8160
8015
8163
8057
8097
8150
7994
8249
7910
8326
7870
8334
7895
8262
7976
8164
8100
8055
8194
7982
8237
7966
8209
8017
8139
8107
8047
8189
7984
8225
7984
8198
8057
8119
8166
8011
8266
7912
8333
7867
8336
7892
8270
7967
8172
8079
8067
8158
8017
8163
8019
8127
8085
8047
8182
7959
8268
7904
8289
7914
8244
7989
8156
8102
8044
8211
7948
8279
7913
8286
7946
8218
8021
8121
8112
8048
8173
8014
8184
8050
8121
8136
8018
8239
7923
8326
7875
8349
7885
8299
7959
8198
8070
8089
8163
8004
8213
7978
8187
8017
8126
8099
8034
8188
7969
8237
7962
8219
8012
8145
8120
8041
8228
7925
8303
7880
8335
7896
8289
7960
8191
8061
8087
8149
8031
8174
8028
8147
8094
8060
8199
7977
8295
7916
8325
7909
8285
7969
8201
8081
8081
8184
7974
8251
7927
8270
7951
8213
8018
8109
8101
8030
8158
7995
8185
8018
8131
8108
8031
8222
7937
8320
7879
8357
7875
8327
7944
8227
8046
8119
8144
8033
8210
8005
8186
8035
8136
8122
8043
8216
7969
8271
7951
8256
7994
8184
8092
8080
8206
7957
8284
7896
8332
7899
8288
7953
8196
8044
8092
8127
8027
8161
8012
8142
8073
8063
8179
7964
8267
7900
8325
7880
8300
7929
8228
8037
8121
8148
8004
8232
7961
8266
7965
8213
8028
8126
8122
8043
8192
7999
8215
8019
8178
8105
8082
8210
7965
8305
7887
8353
7873
8337
7921
8242
8014
8139
8123
8046
8178
8011
8169
8032
8116
8103
8030
8198
7956
8277
7922
8272
7953
8200
8052
8101
8165
7992
8262
7917
8316
7915
8289
7958
8213
8045
8108
8133
8035
8175
8031
8168
8083
8095
8185
7989
8282
7915
8348
7881
8340
7916
8256
8004
8152
8126
8045
8202
7975
8235
7979
8195
8027
8113
8118
8026
8185
7975
8226
7985
8185
8062
8097
8161
7977
8271
7900
8339
7872
8332
7911
8259
7993
8162
8102
8066
8171
8023
8176
8046
8130
8115
8047
8218
7961
8296
7919
8307
7940
8251
8032
8157
8136
8036
8236
7947
8285
7920
8281
7956
8199
8040
8105
8124
8031
8165
8011
8171
8057
8101
8157
7996
8260
7909
8333
7863
8343
7887
8280
7977
8186
8097
8078
8185
8003
8223
7997
8202
8050
8120
8127
8033
8234
7973
8254
7973
8225
8044
8130
8150
8027
8251
7918
8322
7877
8330
7901
8261
7979
8171
8079
8071
8158
8023
8159
8035
8117
8101
8035
8205
7947
8290
7894
8321
7903
8269
7978
8177
8093
8061
8203
7970
8265
7940
8278
7976
8209
8052
8110
8138
8042
8200
8008
8199
8052
8144
8148
8028
8255
7931
8343
7880
8362
7885
8304
7960
8203
8056
8099
8156
8017
8195
8004
8169
8042
8105
8130
8019
8221
7951
8273
7944
8242
7998
8164
8110
8053
8221
7951
8305
7896
8325
7907
8275
7987
8187
8076
8083
8155
8038
8177
8046
8150
8119
8054
8215
7965
8305
7896
8346
7899
8310
7958
8215
8062
8095
8169
7998
8231
7954
8256
7975
8189
8040
8093
8133
8024
8200
7990
8205
8020
8149
8110
8051
8216
7938
8321
7877
8349
7877
8316
7931
8223
8037
8132
8151
8050
8200
8023
8194
8062
8113
8154
8029
8239
7961
8297
7936
8281
7982
8205
8082
8096
8192
7977
8279
7919
8313
7920
8277
7974
8181
8067
8084
8138
8029
8169
8025
8147
8099
8063
8200
7965
8288
7893
8343
7881
8326
7924
8240
8038
8133
8144
8025
8220
7980
8253
7993
8196
8068
8105
8161
8028
8231
7983
8237
8002
8186
8094
8087
8203
7965
8297
7894
8351
7881
8327
7929
8237
8016
8138
8118
8050
8173
8017
8165
8048
8105
8139
8018
8232
7940
8304
7912
8291
7948
8231
8051
8127
8159
8010
8247
7935
8300
7930
8283
7986
8190
8069
8092
8156
8029
8197
8033
8178
8101
8093
8193
7986
8286
7903
8351
7875
8348
7910
8262
7994
8162
8115
8060
8196
7992
8208
7998
8171
8058
8091
8146
8011
8233
7964
8250
7973
8202
8059
8115
8167
7988
8275
7920
8343
7892
8331
7929
8257
8019
8162
8124
8072
8176
8036
8183
8058
8127
8155
8032
8240
7954
8326
7911
8332
7929
8263
8021
8164
8129
8044
8221
7962
8272
7937
8259
7980
8172
8058
8082
8148
8018
8199
8012
8181
8056
8103
8159
7994
8268
7909
8346
7866
8351
7899
8289
7983
8190
8095
8091
8181
8023
8215
8025
8188
8079
8092
8167
8015
8262
7958
8286
7965
8241
8042
8151
8146
8037
8256
7936
8319
7892
8320
7927
8251
8001
8159
8090
8063
8151
8026
8177
8046
8121
8131
8025
8238
7946
8322
7897
8339
7904
8284
7978
8188
8094
8083
8198
7985
8254
7961
8248
8001
8186
8085
8087
8164
8022
8230
8011
8213
8050
8142
8143
8036
8255
7923
8334
7870
8351
7886
8291
7958
8195
8063
8096
8155
8022
8187
8017
8158
8074
8089
8169
8005
8261
7943
8297
7934
8260
8001
8179
8113
8068
8222
7963
8294
7914
8313
7932
8269
8006
8176
8099
8075
8163
8032
8190
8046
8143
8131
8046
8238
7960
8333
7895
8356
7895
8315
7957
8218
8066
8105
8167
8006
8218
7970
8238
8007
8157
8079
8079
8173
8006
8242
7984
8226
8016
8162
8115
8061
8228
7948
8312
7889
8350
7890
8316
7949
8231
8057
8129
8150
8050
8190
8032
8177
8085
8102
8184
8012
8276
7941
8320
7929
8293
7972
8212
8077
8098
8184
7989
8266
7932
8300
7938
8252
8001
8160
8087
8064
8161
8018
8198
8033
8151
8112
8068
8215
7959
8313
7892
8356
7878
8328
7934
8246
8038
8146
8145
8040
8217
8004
8230
8026
8179
8092
8086
8196
8007
8264
7980
8256
7998
8197
8095
8088
8195
7968
8296
7900
8339
7883
8315
7946
8223
8026
8125
8127
8044
8167
8032
8174
8071
8097
8172
8005
8259
7930
8331
7900
8320
7937
8243
8044
8139
8160
8029
8244
7958
8288
7961
8261
8018
8178
8112
8091
8194
8033
8227
8033
8197
8108
8101
8197
7979
8293
7896
8356
7878
8346
7915
8268
8004
8163
8116
8057
8194
8012
8204
8018
8154
8087
8073
8188
7992
8263
7947
8274
7966
8219
8058
8125
8166
8003
8265
7920
8334
7907
8319
7949
8248
8031
8148
8131
8063
8184
8042
8182
8075
8126
8175
8024
8260
7934
8337
7893
8342
7917
8277
8004
8172
8115
8062
8208
7973
8251
7959
8236
8012
8156
8095
8066
8187
8012
8225
7998
8199
8063
8120
8159
8004
8274
7908
8352
7877
8355
7907
8291
7991
8188
8101
8089
8176
8030
8201
8036
8170
8104
8080
8202
7996
8281
7942
8311
7944
8257
8012
8162
8126
8049
8239
7951
8302
7907
8307
7942
8233
8020
8151
8109
8058
8170
8027
8175
8055
8127
8149
8032
8248
7934
8334
7889
8354
7905
8307
7979
8208
8094
8100
8190
8003
8238
7990
8239
8033
8174
8114
8067
8202
8009
8241
7993
8228
8039
8148
8138
8039
8246
7930
8330
7885
8351
7898
8302
7968
8201
8060
8102
8152
8026
8172
8032
8148
8094
8073
8183
7975
8282
7923
8318
7920
8278
7982
8202
8100
8094
8214
7991
8285
7947
8304
7962
8258
8035
8161
8125
8076
8198
8031
8206
8053
8157
8133
8048
8240
7954
8329
7889
8360
7883
8326
7939
8228
8058
8122
8150
8026
8216
7995
8209
8025
8146
8114
8060
8199
7984
8261
7960
8252
8005
8185
8110
8077
8221
7971
8315
7904
8344
7902
8317
7969
8225
8062
8130
8160
8054
8197
8047
8171
8099
8094
8200
7999
8290
7928
8339
7905
8310
7955
8231
8059
8122
8168
8008
8246
7956
8279
7958
8221
8023
8154
8109
8059
8194
8012
8219
8025
8169
8104
8076
8210
7966
8303
7894
8359
7883
8351
7932
8261
8029
8157
8142
8058
8206
8020
8210
8049
8162
8121
8067
8218
7990
8291
7957
8277
7984
8208
8075
8111
8186
8000
8276
7917
8326
7904
8303
7950
8217
8043
8123
8139
8048
8173
8035
8168
8084
8090
8177
7998
8280
7924
8341
7891
8342
7923
8265
8033
8155
8136
8053
8222
7991
8264
7983
8242
8039
8154
8131
8067
8206
8016
8254
8022
8207
8093
8109
8191
7991
8289
7913
8354
7875
8342
7911
8263
7995
8162
8109
8067
8182
8021
8187
8048
8142
8121
8061
8212
7972
8296
7939
8318
7962
8255
8051
8160
8157
8038
8255
7949
8315
7928
8312
7970
8231
8046
8140
8135
8059
8191
8038
8193
8084
8130
8179
8016
8273
7924
8346
7883
8354
7907
8287
7985
8187
8100
8069
8188
7997
8231
7986
8221
8042
8138
8119
8044
8211
7988
8242
7978
8213
8046
8135
8158
8028
8270
7930
8347
7894
8360
7917
8289
7998
8191
8098
8101
8178
8045
8192
8062
8164
8132
8070
8225
7980
8307
7924
8326
7925
8273
7994
8183
8111
8065
8210
7965
8273
7936
8288
7966
8225
8044
8126
8134
8049
8194
8021
8194
8057
8133
8148
8028
8250
7933
8338
7888
8362
7899
8313
7971
8222
8079
8115
8177
8032
8223
8015
8225
8061
8141
8135
8055
8231
7990
8281
7968
8251
8028
8177
8124
8063
8236
7951
8308
7897
8341
7910
8296
7980
8196
8073
8095
8161
8043
8181
8046
8156
8106
8062
8215
7978
8306
7914
8342
7917
8316
7974
8229
8087
8114
8197
8014
8273
7967
8287
7990
8231
8060
8135
8159
8052
8221
8015
8213
8041
8164
8127
8057
8237
7954
8330
7881
8370
7881
8330
7939
8231
8037
8126
8143
8037
8200
8017
8187
8053
8128
8137
8047
8232
7974
8295
7954
8280
7993
8199
8097
8091
8212
7988
8297
7927
8344
7928
8308
7982
8216
8080
8114
8163
8054
8205
8052
8175
8120
8095
8214
7993
8317
7915
8356
7892
8334
7945
8248
8051
8141
8156
8030
8236
7974
8262
7988
8209
8055
8121
8141
8039
8229
8000
8230
8017
8187
8099
8091
8211
7974
8307
7904
8364
7888
8336
7942
8257
8028
8160
8138
8070
8196
8035
8187
8066
8129
8149
8043
8237
7960
8307
7926
8295
7956
8228
8057
8122
8161
8011
8264
7934
8313
7927
8291
7977
8211
8067
8113
8160
8050
8202
8034
8185
8098
8105
8194
8001
8297
7916
8359
7891
8357
7921
8283
8013
8184
8138
8083
8226
8014
8249
8011
8213
8070
8131
8166
8041
8240
7988
8254
7995
8212
8073
8119
8175
8004
8283
7915
8342
7882
8338
7921
8274
8015
8175
8121
8080
8184
8042
8185
8062
8144
8141
8047
8235
7965
8320
7928
8336
7944
8273
8029
8176
8144
8055
8243
7971
8289
7949
8291
7992
8211
8071
8116
8166
8050
8219
8034
8200
8087
8129
8175
8020
8280
7930
8353
7880
8363
7904
8301
7981
8197
8096
8093
8183
8015
8223
8007
8195
8064
8114
8159
8024
8249
7978
8282
7970
8232
8041
8155
8150
8038
8258
7945
8340
7907
8346
7929
8292
8007
8192
8113
8097
8183
8051
8204
8068
8152
8146
8056
8239
7966
8327
7912
8346
7917
8293
7985
8200
8102
8077
8200
7979
8256
7950
8268
7985
8200
8065
8103
8152
8037
8218
8010
8215
8054
8150
8157
8043
8255
7941
8346
7886
8368
7907
8325
7972
8225
8080
8122
8171
8041
8215
8041
8205
8086
8120
8175
8032
8265
7964
8298
7952
8263
8003
8182
8110
8066
8219
7955
8294
7909
8325
7929
8282
8003
8197
8095
8101
8177
8049
8199
8054
8162
8134
8068
8231
7971
8324
7905
8364
7903
8317
7970
8241
8077
8132
8189
8028
8256
7986
8272
8016
8205
8087
8112
8178
8035
8251
8011
8245
8039
8182
8125
8069
8238
7959
8329
7895
8360
7884
8328
7946
8236
8043
8131
8150
8051
8200
8036
8187
8079
8114
8168
8023
8265
7949
8314
7933
8295
7973
8222
8087
8113
8196
8002
8280
7940
8323
7941
8284
8007
8199
8099
8110
8183
8053
8212
8051
8176
8116
8089
8213
7977
8318
7903
8363
7892
8354
7934
8257
8028
8148
8139
8042
8213
7996
8232
8016
8191
8082
8102
8177
8017
8248
7985
8256
8005
8199
8091
8101
8201
7978
8301
7911
8357
7895
8338
7954
8255
8037
8166
8141
8075
8198
8052
8202
8088
8139
8172
8037
8282
7960
8337
7923
8333
7949
8252
8048
8146
8157
8037
8252
7954
8295
7949
8271
8004
8182
8088
8095
8179
8032
8213
8035
8192
8104
8108
8200
7997
8295
7914
8366
7890
8366
7926
8291
8009
8188
8128
8087
8210
8026
8230
8033
8194
8098
8107
8192
8023
8274
7969
8276
7983
8239
8062
8131
8162
8011
8266
7930
8339
7903
8330
7944
8265
8028
8168
8134
8082
8188
8046
8193
8074
8132
8163
8035
8250
7948
8334
7903
8349
7929
8278
8005
8182
8126
8071
8228
7992
8278
7981
8271
8025
8203
8103
8104
8196
8039
8233
8021
8209
8076
8132
8175
8023
8279
7921
8354
7876
8356
7898
8290
7979
8196
8093
8101
8178
8035
8210
8039
8182
8086
8090
8185
8002
8273
7955
8304
7959
8263
8031
8176
8139
8068
8253
7969
8331
7930
8340
7957
8283
8032
8182
8138
8092
8203
8052
8201
8078
8150
8158
8049
8252
7956
8339
7899
8352
7902
8305
7970
8213
8088
8104
8186
8010
8239
7989
8251
8014
8186
8097
8092
8189
8018
8248
8001
8229
8042
8162
8150
8057
8253
7949
8340
7897
8363
7907
8329
7979
8224
8085
8130
8171
8052
8212
8043
8184
8093
8101
8187
8015
8284
7943
8328
7939
8286
7982
8207
8098
8091
8209
7983
8285
7933
8313
7946
8262
8018
8171
8109
8084
8187
8037
8210
8053
8161
8136
8077
8236
7966
8333
7899
8373
7893
8345
7958
8247
8072
8141
8168
8043
8238
8017
8247
8037
8181
8113
8096
8206
8017
8262
7985
8257
8014
8191
8111
8088
8225
7978
8319
7904
8358
7905
8324
7959
8228
8055
8143
8159
8063
8196
8045
8181
8089
8098
8184
8011
8283
7942
8341
7920
8329
7966
8244
8071
8135
8182
8023
8266
7967
8304
7969
8269
8022
8179
8122
8090
8199
8034
8222
8038
8183
8113
8089
8216
7983
8315
7903
8367
7880
8342
7924
8264
8022
8159
8140
8075
8214
8022
8240
8046
8178
8111
8086
8213
8006
8286
7974
8282
7995
8229
8085
8127
8198
8005
8294
7930
8340
7912
8335
7962
8257
8055
8161
8151
8074
8195
8047
8187
8083
8120
8180
8021
8276
7939
8348
7900
8342
7931
8274
8028
8163
8141
8058
8230
7977
8269
7973
8252
8032
8172
8112
8075
8201
8020
8236
8025
8202
8097
8118
8196
8003
8293
7921
8369
7892
8362
7919
8292
8007
8196
8118
8099
8197
8046
8218
8045
8175
8115
8083
8218
7997
8287
7946
8309
7963
8250
8048
8150
8156
8040
8253
7941
8318
7914
8312
7956
8247
8042
8160
8136
8075
8202
8042
8198
8081
8131
8169
8031
8266
7937
8353
7897
8364
7917
8307
7991
8206
8118
8095
8213
8018
8260
8001
8251
8045
8181
8131
8085
8215
8017
8264
8006
8227
8067
8145
8158
8039
8267
7936
8345
7886
8349
7904
8295
7986
8200
8099
8115
8181
8047
8207
8055
8178
8118
8086
8216
8000
8300
7940
8329
7945
8286
8010
8194
8128
8086
8230
7982
8303
7948
8315
7978
8266
8052
8165
8151
8075
8205
8044
8209
8068
8146
8150
8051
8256
7953
8344
7894
8368
7895
8313
7960
8225
8078
8116
8171
8025
8232
8004
8235
8046
8163
8126
8071
8214
7991
8270
7978
8251
8031
8183
8142
8072
8249
7963
8338
7905
8365
7921
8320
7988
8227
8095
8137
8172
8066
8208
8056
8183
8132
8096
8214
8000
8310
7935
8345
7922
8314
7973
8228
8080
8112
8185
7995
8259
7952
8289
7967
8237
8041
8151
8131
8071
8205
8024
8221
8045
8164
8128
8074
8235
7978
8344
7905
8377
7891
8354
7955
8263
8058
8161
8166
8066
8222
8036
8235
8052
8164
8137
8073
8228
7990
8289
7962
8272
7992
8206
8089
8100
8201
7986
8290
7916
8330
7910
8311
7972
8230
8061
8141
8164
8065
8192
8053
8186
8104
8107
8198
8005
8300
7923
8354
7903
8343
7948
8266
8049
8158
8163
8053
8247
7988
8287
7993
8250
8052
8159
8144
8070
8228
8020
8238
8030
8196
8107
8099
8208
7989
8301
7906
8360
7881
8345
7931
8270
8018
8167
8129
8070
8197
8031
8210
8061
8161
8145
8069
8231
7987
8305
7955
8314
7972
8251
8066
8143
8174
8034
8275
7957
8338
7938
8320
7991
8252
8073
8153
8170
8068
8223
8052
8193
8106
8119
8193
8019
8282
7929
8349
7890
8351
7917
8276
7994
8176
8124
8076
8216
8006
8254
8002
8231
8047
8142
8140
8058
8238
8003
8253
8012
8225
8079
8137
8185
8030
8292
7933
8367
7899
8362
7933
8293
8022
8198
8122
8104
8195
8048
8218
8069
8167
8136
8068
8231
7974
8311
7925
8327
7943
8266
8010
8165
8124
8053
8234
7966
8293
7945
8307
7983
8234
8058
8141
8147
8062
8213
8048
8210
8080
8142
8183
8032
8276
7934
8353
7893
8369
7913
8317
7992
8218
8102
8115
8194
8035
8239
8025
8233
8074
8142
8164
8054
8249
7993
8288
7993
8254
8050
8171
8154
8051
8252
7943
8336
7897
8344
7917
8301
7997
8199
8106
8117
8177
8053
8203
8065
8165
8142
8073
8238
7986
8321
7920
8350
7930
8307
7990
8216
8107
8105
8216
8011
8280
7970
8301
7999
8231
8073
8136
8164
8057
8228
8028
8221
8062
8161
8155
8056
8254
7949
8343
7887
8366
7894
8323
7959
8231
8069
8127
8165
8043
8215
8027
8207
8069
8132
8163
8050
8252
7983
8296
7962
8273
8014
8199
8122
8089
8231
7983
8317
7934
8352
7937
8311
8005
8221
8094
8125
8179
8062
8204
8060
8169
8120
8073
8215
7976
8310
7916
8352
7899
8336
7958
8244
8069
8130
8181
8036
8262
7990
8280
8008
8226
8079
8131
8167
8057
8241
8015
8242
8042
8191
8141
8097
8241
7980
8344
7909
8384
7909
8354
7963
8265
8049
8160
8160
8074
8210
8049
8212
8077
8130
8163
8048
8250
7970
8308
7934
8285
7977
8219
8078
8109
8185
7997
8275
7930
8326
7933
8292
7989
8217
8083
8105
8168
8051
8207
8052
8181
8115
8104
8208
8000
8314
7924
8366
7895
8350
7941
8270
8042
8165
8158
8072
8240
8010
8268
8017
8219
8084
8129
8179
8050
8249
7997
8256
8011
8213
8099
8109
8196
7999
8299
7911
8355
7894
8345
7936
8264
8020
8164
8133
8074
8192
8042
8205
8080
8150
8162
8053
8252
7963
8319
7926
8332
7958
8263
8052
8167
8163
8060
8262
7972
8327
7965
8314
8015
8229
8099
8121
8184
8054
8218
8039
8193
8093
8117
8191
8008
8286
7915
8356
7880
8359
7918
8294
8002
8196
8119
8097
8208
8025
8245
8029
8209
8084
8127
8177
8044
8266
7992
8284
7990
8245
8066
8151
8180
8035
8277
7947
8361
7910
8354
7944
8285
8028
8197
8132
8105
8199
8056
8203
8072
8160
8155
8052
8247
7968
8327
7915
8344
7925
8288
8000
8189
8116
8078
8222
7986
8281
7961
8280
8004
8214
8085
8117
8180
8045
8238
8027
8213
8077
8145
8169
8030
8272
7938
8361
7893
8381
7921
8334
8000
8234
8107
8124
8195
8055
8236
8042
8215
8098
8131
8188
8037
8272
7971
8301
7965
8267
8035
8178
8132
8066
8235
7952
8313
7909
8330
7934
8287
8012
8198
8108
8098
8187
8052
8201
8069
8164
8151
8066
8251
7973
8330
7911
8363
7909
8317
7979
8226
8095
8122
8196
8022
8264
7992
8282
8027
8222
8098
8116
8188
8042
8250
8011
8236
8047
8167
8140
8056
8246
7946
8333
7890
8362
7898
8330
7968
8243
8078
8142
8164
8054
8208
8040
8198
8093
8123
8187
8036
8275
7968
8327
7947
8291
7995
8219
8109
8111
8210
8002
8300
7946
8333
7957
8293
8020
8202
8106
8106
8190
8053
8207
8048
8172
8130
8088
8231
7982
8328
7910
8372
7899
8350
7955
8259
8070
8154
8166
8048
8239
8007
8264
8028
8201
8097
8105
8196
8036
8264
7997
8261
8030
8200
8116
8103
8235
7987
8324
7915
8372
7910
8351
7972
8266
8051
8167
8165
8076
8210
8054
8200
8095
8130
8183
8031
8277
7953
8326
7923
8312
7961
8237
8060
8136
8173
8029
8267
7957
8310
7962
8278
8016
8195
8112
8108
8198
8057
8224
8050
8193
8116
8103
8221
7998
8306
7918
8371
7896
8363
7940
8285
8032
8180
8150
8092
8225
8027
8251
8043
8197
8108
8103
8197
8018
8269
7978
8278
7996
8216
8076
8121
8187
8000
8289
7927
8351
7907
8338
7954
8268
8046
8165
8142
8081
8201
8054
8194
8090
8138
8179
8040
8266
7957
8345
7920
8356
7946
8283
8050
8179
8156
8069
8252
7993
8298
7975
8273
8026
8193
8114
8104
8193
8035
8232
8035
8206
8097
8121
8187
8003
8287
7920
8359
7880
8364
7919
8295
8006
8205
8118
8100
8196
8042
8227
8045
8191
8109
8101
8202
8015
8286
7967
8310
7975
8257
8061
8166
8169
8053
8275
7962
8347
7928
8342
7961
8270
8048
8181
8146
8087
8204
8055
8207
8092
8152
8176
8046
8264
7951
8340
7896
8357
7911
8300
7999
8201
8112
8091
8212
8015
8264
7993
8264
8034
8189
8116
8099
8208
8029
8257
8022
8228
8074
8149
8174
8047
8278
7944
8359
7899
8377
7916
8324
7998
8219
8106
8129
8188
8063
8223
8056
8186
8113
8100
8201
8006
8292
7947
8319
7944
8280
8010
8185
8125
8081
8232
7981
8308
7940
8328
7966
8278
8040
8179
8128
8088
8200
8045
8208
8071
8157
8165
8066
8260
7966
8348
7908
8377
7911
8328
7982
8236
8097
8131
8197
8036
8248
8013
8256
8046
8189
8129
8087
8220
8025
8274
7998
8250
8041
8177
8137
8067
8242
7957
8340
7894
8361
7905
8325
7975
8232
8086
8137
8169
8058
8216
8057
8187
8110
8108
8216
8018
8300
7947
8344
7939
8312
7990
8233
8100
8117
8212
8011
8287
7960
8319
7973
8274
8042
8186
8128
8079
8206
8044
8223
8057
8175
8140
8078
8237
7965
8340
7903
8370
7890
8346
7951
8253
8065
8151
8166
8055
8226
8020
8246
8054
8174
8124
8083
8220
8016
8289
7981
8276
8023
8213
8114
8107
8235
7992
8315
7925
8368
7926
8338
7979
8245
8065
8147
8161
8072
8209
8059
8187
8107
8115
8204
8010
8295
7934
8341
7916
8338
7956
8253
8062
8145
8177
8044
8259
7972
8298
7982
8264
8049
8175
8132
8084
8216
8035
8236
8047
8192
8125
8103
8221
7989
8314
7915
8382
7903
8369
7944
8286
8055
8183
8155
8088
8222
8039
8235
8064
8174
8149
8088
8229
8001
8305
7959
8291
7982
8227
8069
8124
8193
8006
8285
7933
8346
7924
8329
7981
8249
8066
8156
8165
8072
8208
8061
8194
8100
8116
8201
8021
8302
7939
8364
7909
8357
7938
8285
8045
8184
8154
8078
8250
8003
8283
7999
8254
8055
8168
8135
8067
8235
8023
8247
8020
8207
8088
8119
8197
7996
8292
7916
8360
7894
8361
7930
8280
8016
8178
8128
8100
8198
8045
8227
8067
8173
8146
8075
8232
7993
8303
7941
8316
7965
8260
8051
8163
8168
8059
8278
7965
8342
7952
8333
7991
8259
8074
8162
8174
8072
8223
8054
8205
8100
8132
8193
8029
8282
7936
8356
7892
8364
7921
8295
8005
8196
8119
8095
8209
8021
8255
8017
8241
8059
8165
8142
8066
8239
8010
8280
8009
8241
8082
8155
8182
8053
8288
7941
8363
7906
8370
7933
8311
8011
8209
8119
8123
8194
8054
8209
8065
8169
8138
8068
8232
7980
8315
7932
8333
7938
8288
8008
8191
8132
8076
8233
7985
8297
7957
8307
7985
8239
8058
8155
8155
8064
8221
8038
8217
8077
8147
8173
8048
8268
7945
8358
7897
8380
7917
8340
7989
8232
8101
8127
8193
8044
8243
8021
8230
8073
8144
8155
8057
8243
7988
8283
7977
8245
8031
8179
8146
8067
8256
7965
8342
7914
8362
7938
8325
8014
8224
8116
8129
8190
8067
8224
8071
8179
8144
8082
8230
7993
8324
7931
8355
7928
8316
7991
8231
8106
8121
8218
8017
8288
7976
8299
7999
8239
8072
8150
8168
8063
8231
8032
8224
8054
8156
8142
8064
8244
7946
8345
7901
8382
7906
8341
7964
8248
8075
8148
8173
8058
8230
8033
8229
8074
8151
8166
8060
8259
7983
8313
7971
8286
8015
8213
8121
8101
8231
7988
8324
7929
8351
7944
8316
8006
8219
8091
8134
8177
8060
8206
8057
8175
8130
8085
8214
7983
8310
7916
8355
7904
8332
7957
8248
8063
8142
8176
8039
8256
7993
8277
8004
8230
8075
8139
8165
8060
8246
8017
8246
8044
8193
8123
8094
8232
7981
8337
7913
8383
7919
8369
7967
8284
8072
8177
8168
8082
8217
8050
8208
8082
8153
8170
8061
8272
7984
8319
7947
8301
7979
8238
8083
8135
8201
8031
8291
7950
8334
7947
8309
8004
8223
8086
8122
8182
8061
8214
8060
8197
8120
8117
8219
8005
8318
7929
8370
7906
8372
7944
8283
8052
8181
8156
8084
8235
8016
8268
8016
8218
8082
8133
8172
8047
8252
7998
8258
8008
8207
8086
8111
8195
8002
8297
7923
8363
7896
8349
7938
8269
8036
8177
8138
8089
8203
8048
8205
8078
8149
8163
8053
8256
7977
8336
7939
8338
7962
8270
8057
8174
8169
8062
8267
7981
8323
7962
8306
8010
8226
8091
8127
8179
8058
8219
8043
8198
8097
8123
8187
8009
8287
7931
8368
7894
8369
7926
8307
8015
8207
8130
8103
8211
8031
8248
8035
8218
8093
8131
8192
8046
8276
7998
8295
8003
8251
8078
8155
8179
8044
8284
7952
8365
7917
8365
7956
8303
8031
8187
8127
8097
8194
8053
8200
8074
8150
8159
8052
8246
7958
8329
7910
8346
7924
8291
8007
8192
8128
8086
8228
7993
8290
7972
8288
8012
8223
8091
8123
8181
8053
8244
8034
8220
8087
8151
8178
8036
8289
7942
8364
7904
8381
7920
8332
7995
8223
8108
8125
8198
8046
8225
8037
8198
8085
8121
8181
8029
8266
7975
8307
7971
8268
8045
8186
8147
8076
8257
7967
8335
7929
8355
7963
8300
8029
8204
8129
8103
8196
8063
8214
8073
8166
8165
8078
8262
7981
8349
7927
8379
7926
8327
7995
8239
8103
8130
8209
8031
8270
7991
8276
8024
8213
8097
8112
8187
8041
8243
8010
8234
8047
8167
8145
8065
8251
7955
8347
7900
8380
7909
8340
7980
8245
8085
8147
8178
8062
8213
8051
8204
8094
8124
8188
8032
8287
7971
8330
7961
8304
8007
8222
8119
8111
8228
8000
8313
7950
8336
7957
8296
8021
8202
8116
8109
8194
8052
8217
8066
8174
8136
8090
8231
7973
8332
7908
8366
7894
8346
7957
8257
8073
8144
8167
8048
8249
8013
8263
8028
8205
8102
8116
8200
8038
8264
8006
8268
8033
8199
8124
8101
8235
7983
8323
7918
8378
7911
8349
7970
8262
8082
8172
8171
8086
8226
8065
8204
8102
8135
8193
8036
8289
7958
8335
7925
8315
7974
8253
8079
8139
8192
8037
8285
7971
8323
7968
8293
8032
8207
8113
8107
8200
8050
8226
8055
8190
8127
8104
8222
7994
8322
7915
8377
7902
8369
7950
8286
8048
8187
8161
8091
8226
8028
8253
8046
8193
8104
8098
8203
8024
8271
7980
8268
7995
8220
8087
8122
8198
8002
8302
7932
8357
7908
8340
7968
8270
8056
8170
8154
8084
8209
8059
8199
8093
8137
8187
8039
8278
7954
8352
7920
8356
7955
8282
8065
8179
8170
8073
8260
7994
8310
7983
8279
8031
8195
8115
8100
8203
8037
8234
8034
8200
8102
8123
8195
8004
8301
7924
8377
7899
8375
7935
8302
8020
8202
8128
8098
8206
8045
8236
8054
8199
8126
8103
8210
8022
8295
7975
8307
7990
8256
8072
8162
8180
8052
8288
7959
8355
7939
8349
7963
8270
8052
8175
8148
8085
8204
8058
8198
8087
8138
8164
8037
8266
7944
8350
7906
8363
7933
8297
8010
8203
8129
8090
8229
8008
8278
7992
8272
8040
8199
8125
8105
8218
8042
8263
8028
8229
8094
8157
8186
8046
8294
7946
8376
7901
8374
7923
8319
7999
8218
8112
8119
8189
8049
8216
8052
8180
8115
8096
8203
8000
8284
7945
8317
7952
8274
8040
8194
8147
8080
8250
7976
8328
7946
8331
7969
8276
8049
8178
8146
8089
8207
8059
8219
8083
8161
8175
8059
8278
7969
8363
7913
8384
7919
8327
7994
8237
8108
8130
8208
8039
8251
8008
8257
8048
8184
8120
8084
8213
8021
8274
8009
8246
8064
8178
8151
8063
8257
7955
8353
7915
8373
7918
8331
7997
8231
8099
8132
8177
8066
8217
8061
8190
8117
8100
8218
8016
8310
7953
8347
7945
8316
8008
8224
8114
8119
8230
8005
8299
7959
8321
7979
8270
8039
8172
8129
8075
8203
8035
8214
8064
8171
8146
8079
8257
7969
8343
7906
8381
7905
8345
7968
8258
8074
8146
8174
8055
8240
8026
8249
8056
8190
8140
8094
8233
8021
8290
7991
8270
8031
8206
8132
8105
8240
7990
8332
7927
8370
7937
8335
7982
8246
8082
8150
8175
8077
8212
8062
8186
8104
8101
8210
8012
8303
7932
8350
7922
8337
7967
8250
8079
8142
8188
8044
8269
7978
8302
7992
8264
8052
8174
8136
8080
8230
8039
8238
8055
8194
8136
8103
8234
7987
8338
7922
8381
7904
8370
7954
8278
8055
8174
8152
8087
8225
8043
8235
8064
8172
8136
8080
8223
7997
8298
7958
8289
7992
8229
8087
8130
8198
8025
8294
7934
8354
7927
8329
7981
8244
8067
8154
8165
8076
8224
8060
8202
8116
8129
8208
8021
8302
7942
8370
7911
8357
7951
8283
8048
8179
8156
8080
8250
8003
8289
8006
8259
8056
8165
8134
8072
8230
8020
8247
8028
8204
8095
8114
8201
8006
8302
7927
8374
7900
8370
7930
8292
8030
8197
8136
8103
8212
8051
8234
8074
8180
8151
8080
8239
8000
8314
7959
8334
7977
8271
8069
8172
8178
8061
8275
7979
8343
7953
8333
7992
8251
8069
8160
8167
8069
8221
8050
8203
8087
8134
8182
8026
8280
7934
8362
7901
8366
7921
8304
8004
8204
8127
8103
8220
8024
8256
8015
8247
8067
8167
8163
8078
8250
8020
8287
8017
8246
8082
8164
8183
8056
8294
7947
8375
7919
8383
7939
8318
8015
8209
8121
8114
8189
8056
8220
8066
8167
8137
8069
8229
7986
8310
7932
8335
7941
8289
8013
8197
8132
8093
8242
7989
8306
7956
8312
7992
8244
8065
8160
8164
8075
8229
8044
8226
8074
8154
8172
8060
8276
7954
8366
7909
8391
7927
8352
7999
8240
8108
8137
8199
8055
8250
8030
8242
8079
8165
8155
8064
8246
7995
8292
7977
8255
8030
8186
8141
8071
8252
7965
8340
7912
8361
7934
8316
8005
8220
8109
8130
8189
8070
8232
8075
8189
8149
8096
8238
8000
8328
7939
8365
7935
8326
7988
8237
8103
8130
8216
8024
8286
7983
8302
7998
8236
8065
8154
8158
8064
8230
8027
8226
8049
8173
8139
8081
8249
7969
8347
7905
8383
7903
8349
7960
8255
8070
8151
8169
8061
8224
8045
8225
8071
8160
8166
8065
8263
7997
8323
7975
8301
8023
8235
8123
8126
8237
8016
8321
7948
8361
7947
8315
8002
8228
8093
8135
8179
8069
8212
8058
8181
8123
8102
8222
8003
8316
7927
8368
7909
8348
7959
8271
8069
8162
8180
8062
8256
8002
8286
8016
8246
8081
8138
8169
8066
8256
8022
8251
8033
8199
8120
8115
8235
7999
8324
7925
8382
7901
8359
7951
8275
8045
8175
8155
8080
8203
8046
8204
8075
8152
8154
8055
8248
7973
8314
7941
8320
7971
8254
8075
8147
8191
8046
8285
7965
8334
7943
8313
8000
8230
8085
8150
8184
8070
8232
8058
8204
8125
8124
8213
8016
8318
7933
8378
7919
8382
7936
8299
8041
8200
8150
8097
8222
8018
8268
8024
8236
8081
8136
8172
8050
8251
8000
8263
8008
8223
8087
8141
8194
8017
8300
7932
8371
7913
8364
7951
8296
8037
8190
8138
8104
8210
8055
8209
8078
8159
8162
8068
8258
7986
8342
7943
8354
7958
8289
8050
8198
8162
8078
8250
7986
8313
7960
8304
8004
8227
8088
8129
8177
8056
8223
8043
8206
8090
8140
8184
8029
8288
7937
8367
7904
8382
7922
8317
8004
8223
8123
8119
8205
8042
8248
8038
8221
8093
8153
8186
8053
8273
7993
8305
7986
8263
8069
8178
8166
8071
8279
7970
8352
7923
8365
7950
8308
8022
8209
8133
8109
8197
8061
8208
8072
8158
8145
8063
8242
7971
8327
7918
8355
7921
8310
7999
8214
8106
8101
8212
8009
8283
7991
8303
8027
8242
8099
8142
8199
8062
8252
8040
8241
8084
8172
8173
8074
8277
7968
8366
7909
8392
7919
8345
7982
8241
8098
8143
8189
8060
8226
8046
8212
8089
8131
8181
8046
8276
7972
8312
7961
8283
8020
8208
8121
8092
8236
7985
8319
7934
8347
7947
8306
8013
8208
8112
8114
8191
8064
8220
8075
8184
8152
8101
8249
7994
8345
7928
8386
7922
8348
7981
8258
8088
8148
8189
8040
8258
8004
8274
8023
8219
8087
8119
8185
8045
8251
8004
8242
8037
8188
8133
8091
8239
7976
8342
7909
8380
7914
8354
7972
8264
8076
8161
8167
8080
8227
8059
8210
8096
8149
8190
8050
8283
7975
8336
7962
8335
7993
8251
8104
8141
8215
8038
8290
7960
8333
7953
8298
8010
8213
8105
8105
8180
8054
8213
8053
8189
8125
8100
8225
7994
8320
7920
8380
7902
8362
7951
8287
8053
8171
8163
8085
8238
8023
8263
8035
8217
8111
8131
8198
8045
8274
8005
8280
8029
8235
8112
8128
8227
8015
8316
7934
8372
7908
8352
7959
8274
8053
8175
8154
8086
8208
8053
8201
8081
8144
8176
8044
8263
7965
8342
7929
8344
7964
8273
8060
8164
8172
8064
8266
7983
8318
7974
8301
8025
8215
8111
8115
8202
8058
8238
8054
8217
8116
8126
8217
8026
8319
7938
8382
7908
8381
7942
8307
8027
8200
8131
8104
8205
8039
8240
8041
8200
8099
8108
8192
8024
8280
7985
8283
7998
8253
8074
8155
8182
8038
8283
7950
8355
7919
8353
7959
8276
8041
8184
8146
8099
8205
8056
8206
8091
8150
8170
8049
8276
7968
8353
7927
8367
7947
8308
8032
8199
8140
8094
8238
8010
8282
7991
8287
8034
8202
8099
8098
8195
8032
8231
8021
8215
8082
8139
8184
8044
8292
7941
8370
7896
8376
7930
8324
8004
8225
8115
8125
8202
8061
8233
8058
8206
8118
8122
8215
8036
8300
7979
8331
7986
8282
8057
8190
8160
8079
8265
7977
8338
7934
8345
7967
8285
8042
8182
8135
8091
8198
8053
8204
8072
8150
8161
8051
8264
7963
8349
7917
8374
7923
8323
7999
8236
8109
8117
8212
8031
8275
8008
8279
8041
8207
8123
8110
8207
8044
8270
8025
8253
8084
8187
8173
8076
8282
7966
8365
7916
8383
7925
8338
7985
8234
8095
8141
8182
8060
8215
8052
8188
8102
8103
8200
8015
8295
7959
8334
7955
8305
8018
8221
8126
8111
8237
8004
8318
7958
8341
7981
8295
8044
8198
8148
8097
8204
8059
8223
8070
8175
8159
8092
8258
7982
8359
7921
8396
7920
8357
7972
8259
8086
8144
8183
8048
8248
8017
8253
8038
8184
8110
8088
8210
8017
8271
7999
8258
8031
8187
8129
8081
8245
7980
8339
7911
8373
7923
8345
7982
8248
8076
8145
8180
8080
8216
8065
8195
8116
8124
8208
8029
8313
7965
8362
7950
8350
7997
8255
8100
8143
8209
8027
8283
7969
8317
7975
8276
8041
8183
8126
8090
8202
8041
8223
8043
8180
8130
8094
8236
7985
8335
7911
8382
7900
8368
7959
8272
8059
8170
8165
8084
8232
8034
8253
8057
8186
8138
8093
8222
8018
8292
7984
8290
8018
8235
8118
8132
8231
8010
8319
7933
8367
7923
8334
7976
8258
8069
8158
8157
8071
8204
8050
8188
8100
8119
8200
8021
8298
7938
8356
7917
8351
7956
8267
8056
8162
8175
8065
8258
7988
8300
7992
8275
8058
8187
8143
8095
8231
8049
8251
8054
8223
8139
8130
8235
8013
8328
7932
8384
7910
8375
7946
8294
8040
8190
8142
8096
8208
8042
8220
8057
8179
8127
8084
8219
8000
8302
7969
8307
7985
8251
8073
8147
8191
8032
8288
7955
8348
7934
8336
7981
8258
8067
8170
8167
8091
8231
8070
8212
8108
8148
8208
8042
8314
7954
8381
7930
8373
7942
8299
8035
8192
8140
8082
8236
8009
8264
7993
8250
8046
8170
8138
8085
8231
8028
8256
8028
8228
8097
8140
8194
8023
8303
7935
8379
7902
8374
7940
8307
8022
8216
8129
8112
8205
8062
8239
8071
8180
8148
8096
8237
8006
8321
7956
8344
7975
8286
8057
8181
8166
8074
8265
7975
8329
7951
8318
7975
8254
8060
8156
8152
8074
8209
8047
8201
8087
8142
8177
8039
8286
7944
8356
7901
8376
7921
8322
7998
8222
8118
8119
8214
8031
8260
8023
8254
8069
8173
8158
8083
8247
8023
8294
8013
8259
8078
8180
8179
8067
8284
7961
8364
7914
8377
7934
8316
8011
8217
8110
8120
8182
8060
8211
8066
8173
8139
8085
8226
7995
8317
7940
8347
7948
8310
8032
8221
8130
8110
8236
8007
8313
7972
8321
7995
8266
8077
8168
8169
8083
8232
8046
8225
8085
8165
8167
8070
8280
7969
8364
7902
8386
7913
8342
7981
8245
8097
8134
8184
8049
8238
8030
8231
8065
8160
8160
8064
8230
8007
8300
7987
8274
8036
8195
8143
8085
8248
7975
8340
7923
8364
7935
8322
8003
8225
8097
8142
8188
8074
8226
8073
8189
8137
8111
8238
8006
8331
7947
8373
7935
8341
7989
8247
8093
8131
8198
8033
8279
7980
8299
7995
8247
8068
8158
8160
8068
8233
8026
8227
8053
8180
8147
8087
8248
7971
8349
7909
8387
7910
8359
7968
8263
8078
8165
8173
8074
8234
8050
8237
8086
8167
8170
8065
8268
8001
8322
7976
8307
8017
8232
8119
8122
8233
8011
8310
7941
8354
7939
8319
8004
8240
8090
8119
8173
8068
8210
8063
8181
8127
8104
8219
7997
8313
7925
8366
7911
8361
7962
8275
8074
8168
8182
8073
8262
8014
8296
8021
8253
8085
8163
8189
8079
8261
8030
8259
8057
8209
8133
8118
8243
7999
8344
7920
8385
7913
8365
7957
8276
8047
8173
8152
8074
8212
8040
8203
8073
8152
8159
8057
8255
7980
8320
7951
8324
7985
8254
8085
8149
8205
8048
8291
7969
8343
7955
8313
8009
8237
8095
8144
8183
8072
8235
8063
8201
8125
8128
8220
8019
8323
7935
8382
7913
8372
7944
8292
8050
8192
8156
8083
8230
8012
8256
8017
8215
8080
8125
8172
8048
8257
8007
8265
8013
8223
8093
8128
8208
8012
8307
7936
8374
7912
8370
7952
8288
8035
8196
8149
8098
8214
8066
8227
8089
8163
8169
8066
8263
7986
8344
7949
8345
7971
8284
8062
8181
8176
8060
8271
7984
8327
7959
8303
8002
8226
8093
8126
8171
8062
8236
8049
8199
8105
8130
8205
8022
8304
7937
8376
7901
8381
7934
8309
8024
8201
8132
8104
8223
8032
8251
8039
8239
8099
8154
8200
8059
8281
8007
8300
8017
8256
8091
8159
8200
8052
8298
7946
8368
7913
8361
7952
8287
8023
8190
8134
8092
8198
8055
8200
8071
8150
8168
8052
8258
7967
8338
7930
8355
7946
8296
8039
8199
8154
8092
8255
7997
8313
7978
8303
8017
8231
8102
8132
8197
8063
8250
8048
8233
8108
8148
8199
8043
8296
7942
8377
7906
8386
7930
8323
8005
8226
8122
8117
8201
8045
8234
8040
8206
8092
8120
8187
8032
8276
7981
8304
7982
8266
8054
8172
8166
8066
8272
7962
8356
7927
8357
7955
8301
8032
8199
8139
8105
8203
8067
8222
8094
8173
8177
8074
8270
7980
8352
7925
8372
7937
8316
8011
8218
8129
8105
8227
8021
8284
7987
8277
8018
8212
8094
8119
8189
8040
8252
8023
8228
8073
8162
8171
8059
8276
7956
8372
7906
8387
7927
8341
7998
8237
8108
8144
8194
8068
8244
8060
8217
8115
8131
8208
8044
8293
7989
8342
7982
8298
8053
8210
8142
8088
8251
7988
8336
7944
8345
7955
8289
8020
8189
8108
8096
8189
8052
8212
8075
8172
8158
8075
8254
7976
8349
7916
8379
7926
8342
7988
8243
8101
8134
8199
8037
8275
8006
8274
8036
8211
8115
8115
8210
8040
8276
8020
8254
8071
8187
8158
8077
8262
7968
8354
7905
8384
7917
8335
7980
8239
8082
8142
8177
8065
8217
8050
8196
8107
8119
8203
8021
8292
7954
8333
7954
8309
8008
8232
8118
8124
8230
8014
8313
7952
8342
7973
8295
8043
8202
8126
8110
8209
8064
8228
8077
8192
8157
8096
8253
7994
8346
7922
8382
7912
8358
7968
8262
8081
8153
8180
8061
8247
8011
8254
8039
8190
8112
8106
8211
8028
8277
8002
8268
8038
8209
8135
8102
8245
7994
8350
7926
8384
7929
8346
7986
8261
8073
8158
8169
8081
8216
8066
8207
8114
8141
8211
8036
8306
7965
8362
7944
8338
7983
8259
8095
8143
8198
8039
8280
7971
8312
7966
8281
8032
8191
8119
8088
8200
8042
8230
8061
8188
8129
8098
8233
7995
8331
7916
8386
7901
8372
7961
8286
8063
8176
8164
8086
8236
8042
8253
8059
8194
8137
8105
8235
8032
8297
7987
8296
8027
8234
8108
8129
8222
8018
8317
7938
8370
7925
8340
7974
8254
8056
8153
8150
8069
8211
8057
8195
8102
8131
8198
8028
8294
7950
8357
7927
8352
7960
8284
8061
8173
8179
8069
8265
7997
8309
7997
8284
8052
8195
8137
8096
8233
8046
8251
8054
8213
8123
8126
8221
8009
8320
7929
8388
7901
8378
7945
8292
8024
8188
8136
8094
8210
8044
8222
8054
8182
8130
8090
8221
8005
8298
7962
8312
7991
8258
8080
8159
8190
8047
8294
7959
8354
7937
8345
7972
8266
8067
8171
8168
8091
8233
8073
8212
8107
8153
8201
8046
8314
7964
8369
7917
8372
7947
8300
8032
8197
8141
8091
8231
8012
8274
7994
8261
8049
8178
8136
8082
8221
8027
8265
8018
8222
8091
8143
8200
8024
8298
7931
8373
7906
8379
7938
8307
8022
8214
8130
8123
8207
8064
8239
8073
8189
8147
8098
8242
8017
8318
7964
8339
7973
8283
8051
8191
8164
8075
8269
7973
8333
7946
8327
7981
8252
8060
8166
8157
8076
8225
8058
8215
8088
8151
8187
8043
8282
7956
8367
7909
8380
7929
8321
8014
8229
8131
8130
8222
8042
8266
8020
8259
8068
8182
8166
8090
8248
8024
8290
8019
8254
8083
8170
8172
8061
8283
7950
8361
7907
8377
7926
8309
7998
8213
8111
8118
8193
8061
8225
8074
8179
8145
8096
8239
8007
8326
7947
8357
7952
8307
8032
8219
8136
8110
8246
8002
8310
7970
8324
7995
8268
8068
8172
8171
8082
8238
8058
8230
8090
8176
8175
8067
8278
7969
8365
7913
8395
7916
8343
7984
8245
8098
8132
8186
8044
8243
8022
8244
8067
8169
8158
8069
8244
8008
8294
7987
8264
8035
8193
8148
8083
8259
7977
8351
7929
8380
7944
8339
8020
8236
8124
8148
8194
8078
8234
8078
8191
8160
8104
8242
8010
8331
7938
8360
7936
8329
7988
8234
8105
8117
8206
8017
8284
7975
8296
7997
8248
8065
8158
8165
8075
8243
8037
8235
8067
8178
8160
8082
8266
7978
8357
7908
8385
7910
8352
7973
8262
8081
8153
8174
8065
8240
8047
8236
8085
8171
8173
8067
8268
8002
8316
7983
8297
8024
8220
8122
8103
8237
8003
8318
7941
8351
7933
8317
7990
8217
8094
8133
8178
8062
8212
8064
8187
8136
8106
8224
7999
8330
7933
8377
7925
8354
7973
8265
8080
8151
8191
8063
8272
8007
8296
8018
8255
8091
8166
8184
8071
8255
8040
8263
8057
8206
8145
8104
8248
7991
8344
7923
8392
7909
8361
7964
8268
8048
8163
8151
8071
8211
8046
8228
8088
8158
8174
8057
8265
7986
8326
7962
8323
7997
8246
8103
8145
8212
8033
8304
7953
8354
7957
8320
8006
8233
8102
8150
8191
8079
8239
8073
8203
8134
8125
8228
8008
8327
7931
8376
7913
8361
7949
8280
8052
8177
8162
8073
8240
8010
8271
8020
8223
8083
8140
8175
8059
8265
8016
8267
8033
8221
8118
8129
8226
8005
8321
7930
8379
7913
8367
7962
8286
8049
8186
8159
8098
8220
8067
8230
8096
8168
8178
8062
8279
7984
8335
7947
8339
7980
8267
8066
8164
8180
8050
8275
7971
8329
7952
8298
7999
8221
8091
8132
8189
8067
8237
8058
8208
8120
8129
8211
8016
8309
7934
8375
7904
8374
7946
8303
8045
8199
8140
8102
8228
8032
8252
8038
8225
8101
8140
8200
8063
8282
8012
8304
8019
8249
8088
8150
8197
8040
8304
7942
8364
7912
8352
7949
8282
8036
8192
8137
8098
8201
8054
8207
8087
8154
8165
8058
8264
7969
8341
7930
8357
7957
8293
8048
8195
8163
8087
8265
8004
8323
7988
8313
8030
8233
8112
8140
8205
8070
8252
8056
8227
8110
8145
8201
8037
8298
7939
8378
7903
8381
7928
8318
8007
8209
8115
8108
8203
8037
8235
8043
8212
8099
8132
8198
8044
8278
7984
8311
7996
8269
8069
8177
8181
8064
8286
7969
8358
7926
8360
7958
8303
8046
8204
8147
8107
8214
8074
8215
8087
8171
8172
8070
8269
7976
8352
7925
8365
7933
8307
8011
8208
8133
8101
8221
8009
8286
7989
8280
8018
8212
8105
8121
8201
8054
8256
8027
8226
8082
8160
8179
8060
8294
7955
8372
7906
8387
7924
8340
7997
8240
8117
8136
8200
8065
8242
8063
8213
8115
8127
8204
8040
8294
7979
8326
7969
8286
8046
8204
8146
8086
8251
7971
8334
7932
8342
7955
8291
8030
8195
8133
8102
8207
8063
8216
8083
8165
8159
8084
8262
7978
8348
7918
8380
7928
8343
7990
8246
8110
8133
8212
8043
8274
8010
8284
8049
8224
8124
8124
8215
8051
8273
8026
8257
8071
8180
8162
8075
8267
7964
8360
7911
8382
7918
8341
7987
8241
8084
8139
8174
8062
8222
8056
8201
8111
8121
8202
8028
8301
7968
8341
7959
8311
8013
8226
8122
8116
8244
8018
8318
7962
8345
7972
8294
8049
8201
8144
8111
8216
8070
8236
8081
8190
8157
8095
8256
7986
8350
7917
8386
7906
8353
7970
8257
8073
8141
8175
8046
8237
8005
8256
8039
8196
8116
8104
8216
8035
8280
7993
8263
8034
8200
8130
8095
8246
7984
8348
7927
8382
7920
8350
7984
8263
8094
8165
8180
8091
8227
8070
8210
8119
8138
8210
8034
8315
7970
8362
7945
8343
7986
8255
8093
8148
8200
8034
8284
7969
8319
7979
8283
8041
8194
8130
8100
8216
8049
8233
8057
8190
8142
8105
8239
7996
8343
7928
8387
7903
8373
7964
8289
8066
8180
8171
8089
8239
8044
8252
8063
8201
8136
8112
8231
8029
8302
7991
8299
8010
8232
8109
8129
8220
8013
8312
7938
8359
7917
8341
7971
8256
8064
8163
8165
8090
8213
8063
8206
8112
8136
8207
8040
8299
7953
8362
7921
8358
7970
8286
8063
8181
8173
8073
8265
8007
8313
7994
8282
8056
8201
8140
8110
8220
8050
8269
8059
8222
8120
8128
8226
8017
8323
7936
8383
7896
8373
7941
8293
8025
8193
8140
8099
8213
8050
8240
8060
8187
8126
8097
8232
8014
8300
7970
8312
7989
8254
8076
8164
8195
8047
8287
7963
8352
7938
8345
7983
8266
8073
8177
8169
8091
8213
8059
8213
8109
8145
8196
8043
8298
7954
8372
7924
8377
7938
8301
8029
8193
8134
8093
8242
8012
8273
8000
8270
8061
8190
8143
8098
8237
8033
8277
8035
8236
8099
8149
8200
8049
8306
7947
8384
7910
8385
7946
8321
8022
8217
8130
8125
8206
8067
8244
8079
8200
8153
8106
8237
8012
8318
7960
8332
7967
8275
8039
8189
8150
8068
8254
7970
8321
7940
8322
7975
8249
8065
8168
8154
8082
8207
8053
8213
8085
8153
8182
8043
8279
7956
8366
7911
8388
7935
8326
8011
8236
8125
8125
8220
8038
8270
8027
8264
8075
8194
8166
8091
8251
8022
8294
8013
8256
8075
8171
8168
8060
8279
7956
8361
7912
8367
7928
8316
7999
8225
8116
8130
8198
8068
8235
8081
8191
8149
8092
8237
8008
8323
7946
8355
7954
8311
8020
8223
8131
8109
8238
8004
8309
7972
8322
7999
8276
8077
8182
8171
8086
8237
8052
8233
8076
8170
8172
8072
8270
7952
8360
7911
8388
7910
8340
7984
8243
8093
8143
8189
8049
8238
8032
8241
8068
8162
8160
8078
8258
8010
8299
8000
8278
8052
8203
8150
8090
8262
7981
8346
7931
8374
7934
8331
8010
8234
8114
8143
8190
8076
8235
8086
8199
8150
8112
8240
8017
8331
7948
8369
7929
8341
7989
8233
8096
8127
8202
8020
8277
7976
8297
8000
8257
8066
8164
8166
8084
8241
8040
8240
8069
8186
8154
8088
8261
7978
8355
7917
8393
7912
8363
7984
8274
8084
8171
8179
8077
8237
8059
8247
8088
8171
8173
8077
8262
8000
8314
7977
8298
8023
8220
8118
8116
8228
7998
8310
7928
8347
7932
8321
8001
8230
8097
8142
8185
8072
8232
8071
8188
8138
8111
8232
8011
8331
7937
8376
7918
8359
7974
8277
8081
8164
8191
8066
8271
8003
8304
8018
8256
8084
8167
8180
8078
8259
8033
8261
8044
8204
8133
8105
8235
7987
8327
7911
8380
7900
8356
7954
8270
8047
8175
8158
8086
8222
8054
8230
8085
8166
8174
8069
8267
7982
8326
7967
8330
7999
8252
8092
8146
8207
8047
8306
7964
8353
7963
8328
8014
8245
8099
8153
8193
8081
8236
8069
8210
8135
8122
8224
8019
8326
7935
8375
7910
8366
7943
8285
8050
8180
8156
8074
8237
8016
8273
8026
8239
8081
8141
8179
8057
8258
8016
8269
8027
8231
8117
8136
8220
8025
8325
7936
8381
7914
8372
7959
8292
8051
8194
8148
8098
8214
8070
8231
8091
8171
8174
8070
8261
7979
8335
7942
8341
7970
8273
8063
8167
8176
8059
8269
7972
8329
7962
8312
8011
8233
8093
8130
8185
8064
8223
8051
8206
8112
8130
8204
8018
8308
7943
8387
7907
8390
7946
8307
8031
8210
8149
8108
8232
8048
8273
8042
8250
8115
8160
8205
8061
8278
8001
8297
8011
8246
8094
8142
8189
8037
8294
7939
8365
7912
8358
7946
8286
8034
8193
8138
8100
8201
8065
8214
8094
8161
8177
8064
8272
7984
8348
7937
8356
7953
8295
8044
8202
8154
8090
8259
7998
8312
7986
8312
8028
8228
8111
8136
8206
8066
8249
8053
8230
8105
8153
8192
8033
8289
7945
8371
7895
8375
7925
8311
8000
8212
8119
8116
8201
8049
8244
8044
8216
8108
8132
8192
8048
8282
7990
8319
7989
8269
8063
8184
8174
8073
8278
7970
8361
7931
8360
7961
8306
8039
8203
8140
8115
8214
8076
8219
8091
8167
8175
8072
8264
7983
8348
7925
8366
7931
8311
8001
8214
8121
8105
8220
8011
8279
7988
8290
8027
8221
8112
8125
8206
8060
8263
8038
8237
8083
8171
8182
8070
8285
7960
8368
7903
8382
7927
8339
7996
8244
8113
8146
8204
8076
8242
8066
8222
8103
8130
8204
8043
8288
7973
8327
7966
8286
8026
8201
8132
8091
8241
7985
8323
7938
8342
7962
8295
8029
8200
8132
8102
8201
8070
8221
8079
8174
8157
8088
8257
7979
8353
7921
8387
7925
8349
8000
8258
8104
8145
8217
8053
8275
8023
8293
8048
8223
8123
8130
8219
8051
8279
8023
8262
8071
8191
8158
8085
8263
7969
8349
7911
8383
7912
8346
7978
8247
8091
8153
8177
8071
8224
8062
8208
8110
8140
8203
8031
8297
7966
8343
7953
8317
8003
8237
8112
8124
8221
8015
8298
7962
8342
7982
8316
8047
8214
8147
8121
8215
8067
8233
8075
8189
8149
8096
8245
7993
8346
7919
8385
7905
8352
7962
8259
8069
8159
8175
8057
8242
8016
8262
8046
8202
8119
8106
8216
8031
8273
8001
8276
8036
8215
8131
8109
8243
8001
8344
7931
8383
7933
8355
7986
8277
8093
8174
8183
8087
8221
8070
8205
8118
8142
8211
8040
8308
7961
8361
7937
8345
7967
8248
8075
8147
8189
8042
8274
7971
8314
7978
8282
8034
8199
8135
8114
8212
8050
8238
8064
8205
8141
8112
8240
8007
8336
7928
8391
7911
8376
7953
8292
8056
8183
8155
8106
8245
8054
8260
8057
8203
8133
8108
8228
8027
8300
7985
8296
8012
8242
8103
8143
8210
8034
8301
7941
8359
7923
8343
7972
8263
8063
8166
8161
8084
8212
8063
8205
8108
8143
8203
8044
8309
7953
8367
7928
8362
7956
8291
8064
8189
8177
8086
8266
8007
8311
7999
8291
8059
8204
8136
8105
8223
8043
8250
8044
8217
8112
8134
8209
8014
8308
7930
8375
7899
8365
7934
8295
8022
8198
8127
8105
8207
8049
8241
8058
8187
8130
8108
8228
8011
8302
7972
8327
7992
8265
8077
8171
8188
8065
8290
7969
8355
7947
8352
7990
8274
8072
8180
8173
8095
8218
8068
8214
8098
8148
8195
8041
8294
7960
8363
7916
8371
7932
8304
8012
8207
8137
8098
8233
8023
8297
8018
8276
8060
8191
8143
8096
8244
8042
8282
8040
8243
8100
8161
8197
8046
8302
7946
8375
7911
8388
7943
8323
8022
8226
8133
8136
8213
8070
8242
8069
8193
8144
8099
8235
8008
8311
7961
8340
7969
8280
8046
8195
8152
8085
8252
7982
8327
7950
8324
7984
8273
8060
8170
8159
8090
8229
8064
8223
8098
8163
8188
8052
8283
7961
8369
7914
8384
7931
8330
8008
8239
8130
8138
8221
8052
8275
8031
8265
8075
8196
8165
8093
8249
8026
8287
8012
8255
8072
8176
8168
8063
8270
7954
8352
7902
8369
7929
8324
8002
8220
8111
8130
8193
8072
8217
8071
8183
8138
8100
8238
8010
8325
7954
8355
7954
8314
8012
8232
8131
8116
8235
8015
8306
7973
8326
7999
8281
8076
8183
8175
8088
8245
8060
8227
8079
8175
8166
8074
8270
7970
8356
7901
8383
7919
8344
7982
8253
8095
8141
8185
8055
8246
8032
8246
8067
8175
8161
8084
8256
8010
8301
7992
8278
8056
8201
8145
8106
8255
7989
8355
7934
8373
7936
8339
8008
8239
8113
8150
8189
8082
8234
8071
8192
8135
8112
8235
8009
8323
7937
8355
7926
8325
7985
8242
8091
8130
8198
8024
8274
7979
8302
8001
8263
8076
8167
8173
8080
8246
8047
8246
8063
8192
8156
8093
8254
7984
8358
7927
8403
7914
8364
7975
8274
8087
8176
8188
8086
8244
8054
8250
8096
8183
8172
8079
8266
7999
8315
7973
8294
8011
8225
8115
8118
8223
8004
8312
7941
8356
7944
8325
8008
8246
8100
8147
8183
8083
8236
8073
8202
8141
8124
8232
8017
8335
7945
8382
7924
8364
7971
8278
8076
8173
8186
8077
8269
8009
8298
8026
8256
8085
8165
8176
8076
8254
8028
8254
8043
8206
8127
8111
8232
7992
8327
7922
8380
7901
8367
7959
8282
8051
8183
8156
8086
8221
8053
8232
8090
8176
8176
8070
8274
7999
8342
7969
8335
7997
8265
8100
8155
8206
8047
8295
7963
8353
7957
8318
8011
8239
8095
8155
8185
8077
8229
8066
8203
8126
8125
8210
8014
8313
7933
8366
7901
8364
7939
8285
8040
8187
8153
8082
8235
8017
8273
8030
8246
8086
8145
8185
8068
8260
8014
8271
8024
8236
8116
8149
8220
8039
8318
7943
8389
7923
8380
7965
8301
8051
8203
8151
8121
8219
8064
8230
8087
8168
8169
8062
8260
7985
8329
7939
8339
7960
8271
8046
8170
8161
8067
8265
7984
8323
7966
8305
8009
8231
8086
8141
8194
8074
8245
8063
8219
8118
8140
8209
8041
8308
7952
8380
7911
8390
7940
8322
8025
8220
8146
8117
8227
8054
8273
8047
8242
8100
8138
8189
8052
8272
7999
8302
8001
8247
8076
8164
8180
8051
8287
7951
8360
7919
8361
7950
8307
8031
8201
8144
8102
8198
8068
8218
8089
8177
8166
8073
8263
7988
8347
7938
8365
7956
8313
8035
8213
8151
8112
8255
8024
8321
7991
8317
8028
8234
8107
8134
8189
8064
8254
8050
8229
8088
8151
8180
8050
8282
7943
8362
7899
8379
7918
8331
8000
8235
8111
8132
8202
8047
8236
8046
8221
8107
8152
8197
8057
8286
7997
8317
7985
8290
8065
8200
8163
8090
8276
7990
8361
7943
8367
7961
8312
8039
8221
8136
8117
8203
8070
8224
8081
8169
8160
8076
8253
7978
8337
7920
8369
7923
8319
7991
8231
8110
8124
8220
8034
8284
7997
8291
8028
8225
8108
8128
8195
8056
8263
8038
8246
8080
8186
8174
8081
8278
7972
8369
7914
8391
7923
8354
7997
8257
8101
8158
8192
8076
8241
8068
8217
8102
8130
8197
8048
8291
7982
8330
7962
8299
8013
8220
8123
8106
8234
7997
8312
7946
8347
7957
8297
8031
8209
8131
8118
8208
8071
8224
8072
8188
8156
8099
8254
7994
8348
7930
8389
7924
8359
7984
8267
8094
8168
8200
8070
8268
8024
8281
8046
8229
8119
8136
8214
8050
8272
8017
8263
8038
8200
8132
8087
8237
7979
8330
7909
8374
7910
8349
7975
8267
8083
8164
8177
8085
8229
8070
8216
8112
8143
8200
8048
8296
7968
8342
7947
8334
7994
8257
8097
8146
8215
8041
8302
7980
8345
7982
8306
8040
8214
8124
8114
8203
8059
8230
8059
8187
8134
8101
8230
7997
8327
7921
8385
7904
8365
7950
8281
8057
8179
8165
8085
8240
8032
8258
8047
8215
8119
8122
8211
8046
8289
8011
8291
8026
8235
8112
8139
8224
8016
8322
7946
8384
7931
8362
7974
8277
8069
8185
8169
8094
8216
8068
8208
8105
8150
8198
8053
8307
7964
8347
7928
8343
7959
8279
8066
8172
8170
8067
8263
7986
8311
7978
8289
8034
8207
8126
8113
8209
8055
8244
8053
8218
8119
8133
8225
8024
8319
7939
8391
7912
8387
7953
8312
8036
8218
8157
8118
8227
8050
8256
8057
8199
8121
8110
8212
8029
8291
7979
8306
8000
8256
8074
8156
8185
8045
8288
7952
8352
7932
8354
7971
8277
8059
8188
8159
8102
8215
8064
8218
8106
8154
8195
8056
8289
7970
8362
7923
8371
7943
8303
8037
8211
8150
8101
8243
8019
8306
8009
8289
8049
8205
8131
8109
8219
8045
8265
8038
8233
8095
8157
8192
8049
8292
7941
8370
7907
8382
7925
8329
8013
8226
8125
8126
8202
8060
8228
8065
8195
8122
8115
8220
8029
8313
7979
8343
7981
8294
8059
8203
8164
8091
8270
7994
8347
7954
8353
7983
8289
8053
8189
8150
8094
8219
8069
8221
8093
8168
8174
8064
8274
7965
8355
7914
8376
7922
8332
8004
8233
8117
8125
8208
8040
8269
8014
8273
8054
8202
8130
8098
8229
8032
8276
8021
8251
8072
8185
8167
8069
8272
7974
8368
7922
8392
7937
8344
8002
8245
8116
8154
8192
8075
8225
8075
8197
8124
8110
8217
8014
8305
7952
8342
7947
8312
8011
8227
8118
8116
8227
8011
8310
7971
8332
7979
8286
8052
8193
8156
8103
8217
8057
8230
8078
8182
8163
8095
8270
7989
8361
7923
8395
7920
8370
7988
8277
8094
8162
8197
8067
8251
8033
8265
8070
8194
8158
8097
8228
8019
8289
7993
8275
8035
8209
8135
8103
8242
7991
8326
7924
8373
7930
8342
7991
8245
8083
8155
8179
8078
8222
8071
8203
8135
8131
8225
8035
8320
7952
8369
7934
8340
7988
8268
8099
8166
8210
8058
8296
8005
8328
7997
8278
8056
8189
8159
8094
8219
8036
8237
8058
8198
8137
8100
8238
7990
8336
7920
8387
7899
8367
7956
8287
8068
8189
8179
8101
8245
8060
8261
8079
8197
8155
8101
8244
8015
8303
7978
8301
8014
8247
8106
8143
8220
8034
8311
7955
8365
7942
8348
7994
8269
8089
8171
8173
8089
8231
8071
8197
8105
8122
8205
8021
8287
7928
8353
7907
8351
7948
8280
8052
8173
8160
8076
8254
8004
8300
8009
8266
8068
8179
8160
8081
8235
8031
8255
8046
8224
8116
8127
8222
8021
8328
7938
8394
7923
8390
7964
8315
8049
8215
8154
8124
8225
8065
8238
8077
8184
8159
8095
8240
8003
8317
7962
8320
7975
8260
8061
8157
8170
8051
8277
7962
8342
7949
8336
7993
8265
8084
8184
8179
8098
8234
8071
8219
8125
8151
8196
8030
8286
7933
8353
7892
8362
7929
8301
8012
8200
8137
8097
8235
8036
8285
8019
8262
8077
8185
8168
8092
8262
8041
8304
8040
8248
8094
8159
8202
8073
8326
7975
8389
7926
8392
7946
8334
8036
8236
8154
8139
8217
8085
8245
8082
8175
8145
8083
8238
7995
8317
7943
8343
7956
8293
8042
8209
8168
8095
8262
8008
8337
7976
8340
8010
8274
8087
8176
8172
8077
8231
8058
8223
8099
8153
8177
8042
8269
7949
8361
7898
8380
7917
8326
7995
8234
8106
8124
8205
8052
8260
8032
8250
8084
8173
8170
8076
8264
8015
8295
8001
8266
8064
8186
8166
8075
8267
7976
8360
7933
8382
7948
8335
8021
8226
8118
8135
8198
8080
8240
8086
8196
8149
8093
8233
7989
8326
7935
8353
7924
8313
7995
8237
8124
8130
8225
8018
8292
7985
8311
8011
8266
8088
8169
8181
8085
8242
8048
8238
8079
8184
8160
8083
8265
7980
8368
7916
8400
7921
8354
7983
8267
8098
8170
8192
8077
8242
8048
8240
8082
8169
8174
8075
8261
7996
8308
7971
8281
8016
8213
8115
8110
8243
8005
8327
7937
8364
7936
8317
8009
8235
8103
8148
8199
8089
8244
8081
8200
8141
8113
8236
8012
8335
7938
8378
7926
8356
7980
8272
8092
8165
8195
8068
8264
7999
8294
8019
8250
8076
8154
8176
8070
8247
8028
8254
8042
8204
8133
8106
8241
7991
8340
7917
8388
7913
8369
7967
8281
8073
8184
8167
8087
8225
8056
8232
8088
8165
8180
8070
8270
7986
8325
7966
8327
8002
8250
8096
8149
8215
8050
8315
7983
8372
7981
8345
8023
8252
8104
8152
8196
8083
8244
8078
8212
8133
8126
8219
8018
8325
7931
8372
7899
8362
7941
8286
8045
8184
8158
8082
8240
8023
8268
8018
8237
8079
8144
8177
8063
8268
8023
8294
8048
8248
8129
8158
8234
8041
8323
7939
8375
7916
8376
7957
8295
8045
8197
8148
8101
8215
8062
8215
8082
8159
8166
8068
8266
7978
8331
7944
8345
7977
8288
8070
8180
8176
8070
8268
7989
8334
7964
8310
8009
8229
8084
8133
8185
8071
8248
8059
8218
8116
8152
8206
8036
8303
7937
8377
7913
8389
7937
8316
8018
8218
8125
8117
8221
8038
8248
8039
8242
8103
8164
8201
8063
8274
7997
8288
7987
8238
8060
8153
8174
8052
8288
7968
8378
7931
8371
7956
8316
8040
8219
8150
8133
8214
8067
8214
8092
8174
8169
8073
8269
7986
8342
7936
8361
7946
8310
8033
8218
8140
8113
8245
8012
8301
7983
8294
8012
8224
8085
8128
8183
8060
8248
8035
8231
8093
8164
8193
8072
8292
7960
8374
7913
8392
7923
8345
8001
8244
8117
8146
8212
8070
8257
8062
8216
8097
8156
8202
8063
8290
8004
8334
8001
8295
8071
8217
8164
8100
8281
8001
8362
7947
8366
7964
8316
8031
8205
8108
8102
8185
8053
8209
8066
8160
8143
8068
8245
7978
8331
7917
8368
7915
8329
7992
8256
8124
8148
8220
8040
8279
8001
8282
8021
8218
8096
8127
8201
8061
8267
8026
8240
8055
8175
8144
8079
8272
7979
8365
7916
8394
7925
8358
7991
8259
8094
8167
8197
8093
8266
8090
8247
8124
8153
8197
8050
8284
7970
8315
7940
8284
7983
8216
8107
8126
8245
8027
8325
7961
8357
7967
8302
8020
8214
8114
8140
8230
8114
8282
8115
8223
8180
8127
8267
8010
8365
7953
8402
7929
8370
7979
8280
8083
8164
8175
8044
8234
7996
8255
8020
8212
8108
8120
8187
8031
8257
8000
8259
8028
8202
8124
8109
8254
8011
8357
7941
8397
7935
8371
7992
8290
8097
8182
8176
8085
8208
8047
8195
8083
8116
8178
8035
8284
7962
8344
7949
8347
7994
8273
8091
8155
8201
8040
8275
7974
8338
7991
8322
8041
8233
8152
8132
8211
8067
8233
8062
8207
8127
8107
8206
7980
8293
7896
8357
7888
8350
7935
8284
8053
8196
8172
8128
8273
8070
8282
8062
8217
8130
8139
8224
8052
8295
7993
8277
7995
8204
8067
8103
8186
8009
8312
7956
8390
7943
8373
7989
8322
8116
8235
8199
8123
8234
8091
8230
8120
8158
8191
8044
8264
7945
8334
7912
8345
7937
8267
8036
8165
8147
8052
8236
7967
8273
7953
8266
8022
8196
8112
8114
8223
8091
8301
8091
8257
8146
8168
8250
8074
8358
7982
8417
7930
8408
7954
8318
8021
8213
8133
8101
8205
8038
8246
8066
8214
8120
8116
8220
8035
8288
7966
8292
7970
8249
8060
8161
8170
8046
8275
7967
8364
7950
8359
7972
8291
8055
8195
8149
8095
8208
8069
8230
8119
8189
8209
8066
8282
7964
8350
7910
8367
7937
8311
8031
8218
8145
8116
8238
8011
8264
7979
8264
8022
8187
8120
8112
8223
8036
8255
8014
8217
8071
8137
8164
8017
8268
7937
8369
7908
8392
7939
8341
8020
8243
8133
8145
8208
8076
8248
8077
8206
8124
8120
8224
8022
8297
7961
8317
7950
8270
8013
8176
8114
8048
8227
7985
8375
8022
8425
8051
8353
8108
8233
8180
8134
8251
8081
8234
8093
8171
8167
8064
8271
7957
8336
7884
8338
7876
8298
7970
8243
8118
8129
8207
8024
8258
8033
8300
8087
8242
8186
8145
8271
8053
8297
8048
8296
8096
8201
8180
8091
8278
7982
8368
7914
8384
7935
8341
7994
8229
8095
8132
8174
8061
8212
8063
8188
8112
8100
8202
8001
8285
7932
8324
7924
8290
7984
8210
8105
8098
8189
7963
8261
7940
8305
7944
8230
8020
8174
8157
8122
8271
8109
8281
8084
8170
8138
8068
8254
7987
8377
7946
8431
7956
8407
8030
8330
8146
8219
8233
8090
8246
8027
8254
8054
8170
8100
8062
8217
8033
8306
8016
8306
8079
8254
8179
8148
8277
8021
8366
7960
8398
7958
8367
8008
8265
8107
8172
8185
8085
8233
8082
8207
8113
8095
8181
7981
8261
7904
8309
7869
8269
7921
8212
8045
8106
8151
7988
8227
7938
8285
8004
8350
8199
8317
8234
8132
8257
8088
8321
8133
8235
8154
8118
8253
8006
8340
7909
8378
7918
8403
7992
8313
8083
8212
8196
8108
8225
8029
8230
8050
8166
8121
8082
8230
8018
8315
7987
8315
8009
8245
8112
8163
8245
8047
8313
7943
8353
7923
8320
7958
8224
8044
8140
8165
8090
8219
8074
8215
8125
8136
8210
8027
8312
7952
8376
7933
8381
7981
8320
8086
8212
8191
8095
8265
8011
8301
7997
8260
8061
8182
8154
8082
8234
8029
8263
8049
8222
8114
8121
8216
8006
8317
7934
8378
7895
8350
7910
8260
7992
8161
8107
8073
8191
8029
8201
8055
8188
8172
8114
8255
8012
8335
7978
8356
8008
8283
8083
8161
8164
8034
8267
7951
8331
7941
8357
8025
8280
8063
8141
8155
8070
8177
8026
8172
8069
8128
8225
8070
8306
7935
8355
7912
8384
7953
8343
8087
8280
8214
8184
8297
8083
8317
8047
8276
8086
8205
8190
8105
8261
8036
8297
8037
8251
8098
8156
8192
8056
8304
7960
8388
7928
8389
7942
8321
8031
8221
8133
8132
8205
8074
8237
8081
8181
8154
8079
8223
7973
8298
7928
8339
7960
8290
8024
8170
8119
8073
8254
7999
8320
7941
8313
8005
8278
8067
8120
8118
8044
8206
8027
8182
8087
8170
8197
8055
8279
7964
8414
7961
8417
7938
8323
7996
8243
8138
8170
8267
8113
8294
8037
8237
8052
8150
8174
8111
8315
8071
8328
8006
8255
8065
8177
8160
8072
8261
7951
8343
7907
8343
7911
8293
8002
8244
8162
8181
8227
8082
8236
8100
8196
8166
8101
8245
8001
8339
7950
8368
7950
8329
8017
8234
8123
8115
8232
8017
8278
7955
8283
7979
8218
8039
8109
8134
8063
8225
8039
8250
8106
8205
8189
8086
8275
7967
8357
7908
8394
7930
8378
8011
8285
8113
8172
8209
8083
8252
8060
8241
8085
8144
8142
8025
8212
7973
8311
7999
8298
8068
8253
8171
8133
8256
7989
8340
7948
8386
7962
8326
7997
8211
8098
8155
8214
8087
8236
8090
8193
8156
8112
8254
8032
8364
7953
8381
7931
8347
7979
8230
8060
8109
8152
7987
8231
7998
8325
8048
8283
8106
8190
8218
8097
8263
8023
8229
8030
8159
8110
8060
8217
7950
8326
7901
8380
7909
8369
7982
8278
8077
8172
8165
8067
8229
8077
8289
8170
8223
8226
8086
8291
8002
8331
7979
8313
8012
8260
8135
8153
8238
8040
8322
7966
8361
7959
8315
8003
8225
8099
8127
8181
8058
8207
8049
8169
8107
8089
8213
8008
8330
7937
8388
7912
8362
7949
8262
8048
8155
8146
8053
8245
8027
8303
8037
8251
8110
8168
8208
8092
8300
8052
8274
8028
8184
8088
8087
8206
7992
8327
7958
8437
7966
8386
7963
8266
8025
8151
8140
8096
8237
8091
8256
8114
8196
8233
8095
8288
7978
8324
7933
8322
7973
8262
8073
8152
8198
8071
8301
7994
8366
7996
8339
8035
8247
8120
8157
8201
8078
8244
8068
8216
8130
8120
8203
7992
8276
7893
8359
7895
8356
7913
8267
8021
8209
8184
8125
8244
8032
8269
8039
8214
8079
8135
8221
8094
8309
8029
8313
8039
8276
8134
8176
8223
8034
8296
7921
8350
7912
8392
8014
8342
8068
8189
8137
8086
8194
8065
8213
8096
8176
8201
8072
8276
7966
8337
7931
8360
7958
8275
8041
8171
8143
8070
8260
7995
8312
7966
8292
8023
8235
8098
8100
8150
8026
8203
8030
8197
8086
8128
8204
8076
8383
8026
8441
7943
8397
7930
8304
8004
8212
8127
8122
8222
8064
8282
8090
8258
8132
8138
8198
8035
8266
7972
8292
7974
8242
8072
8189
8183
8056
8272
7949
8344
7910
8340
7940
8277
8037
8194
8132
8118
8233
8094
8220
8089
8169
8172
8068
8274
7994
8384
7967
8413
7967
8312
8008
8207
8124
8098
8220
7988
8256
7969
8262
7991
8170
8079
8111
8203
8075
8291
8058
8261
8103
8174
8196
8086
8310
7962
8378
7929
8425
7971
8395
8058
8304
8172
8195
8229
8075
8243
8083
8228
8103
8104
8181
8021
8284
7976
8342
7993
8311
8057
8206
8151
8088
8241
7968
8308
7930
8357
7985
8318
8053
8214
8134
8119
8209
8063
8211
8074
8162
8150
8071
8264
7987
8359
7933
8391
7931
8348
7995
8252
8083
8101
8138
7974
8202
7943
8214
8002
8197
8157
8198
8271
8072
8297
8046
8278
8081
8199
8156
8080
8248
7966
8361
7933
8407
7953
8367
7986
8241
8059
8119
8133
8021
8176
8042
8208
8127
8160
8245
8079
8323
7991
8370
7997
8365
8030
8254
8123
8135
8233
8024
8303
7960
8331
7968
8285
8024
8184
8101
8090
8184
8037
8203
8051
8185
8166
8126
8260
7999
8350
7944
8405
7906
8351
7963
8270
8071
8173
8197
8102
8258
8021
8245
8025
8185
8094
8090
8208
8047
8313
8058
8346
8070
8231
8137
8123
8245
8021
8368
7956
8381
7916
8344
7975
8256
8057
8165
8175
8098
8253
8104
8233
8121
8143
8215
8054
8321
7978
8371
7949
8366
7978
8262
8064
8149
8185
8046
8259
7962
8304
7970
8278
8024
8185
8109
8102
8219
8054
8216
8002
8131
8051
8068
8210
8001
8317
7918
8383
7926
8418
8023
8395
8147
8286
8245
8182
8286
8081
8275
8072
8213
8134
8115
8221
8022
8287
7969
8262
7960
8199
8049
8107
8151
7977
8254
7923
8395
8002
8408
7996
8267
8049
8158
8145
8085
8224
8104
8273
8175
8207
8258
8095
8335
7983
8376
7925
8367
7942
8282
8038
8184
8150
8080
8247
8012
8305
7993
8281
8055
8201
8125
8104
8218
8040
8249
8036
8214
8100
8126
8181
8004
8286
7912
8351
7881
8362
7919
8305
8015
8207
8136
8129
8227
8067
8258
8077
8201
8137
8110
8227
8013
8300
7956
8313
7978
8285
8096
8220
8219
8104
8294
7990
8355
7943
8335
7962
8247
8022
8132
8098
8044
8163
8033
8210
8107
8180
8221
8098
8300
7975
8373
7925
8381
7939
8339
8055
8262
8150
8119
8215
8008
8255
8010
8286
8102
8246
8215
8165
8271
8057
8295
8035
8267
8107
8182
8184
8059
8291
7976
8399
7932
8389
7941
8336
8006
8221
8100
8112
8168
8031
8191
8031
8144
8083
8064
8193
7990
8286
7946
8341
7957
8303
8018
8229
8177
8165
8319
8075
8380
7996
8353
8006
8300
8070
8185
8170
8116
8258
8071
8227
8080
8160
8149
8051
8247
7940
8334
7889
8368
7904
8346
8028
8329
8166
8198
8219
8069
8256
8022
8243
8050
8182
8133
8093
8235
8018
8269
7976
8245
8012
8175
8118
8065
8236
7978
8351
7942
8399
7962
8368
8024
8265
8114
8156
8182
8073
8233
8071
8206
8173
8171
8269
8056
8340
7972
8381
7964
8349
7988
8252
8094
8122
8187
7995
8247
7931
8279
7964
8268
8061
8181
8158
8107
8249
8053
8223
8053
8188
8147
8113
8257
7979
8338
7916
8395
7924
8394
8012
8329
8124
8212
8195
8102
8239
8036
8216
8036
8132
8100
8047
8200
7991
8325
8041
8364
8074
8277
8147
8149
8232
8018
8332
7952
8361
7927
8332
7987
8253
8091
8167
8180
8082
8210
8057
8187
8113
8126
8216
8019
8318
7949
8368
7928
8366
7975
8287
8085
8191
8185
8076
8261
8001
8309
8014
8272
8068
8178
8161
8086
8236
8029
8236
8034
8202
8111
8101
8206
7992
8311
7907
8360
7874
8348
7931
8275
8033
8177
8122
8077
8222
8089
8295
8150
8240
8190
8111
8295
8057
8369
8008
8342
7986
8247
8065
8153
8193
8043
8285
7966
8354
7968
8358
8022
8270
8091
8169
8169
8077
8232
8071
8221
8132
8141
8215
8048
8328
7968
8393
7937
8402
7970
8325
8054
8220
8158
8108
8244
8026
8265
8022
8245
8056
8140
8133
8058
8215
7997
8244
8001
8203
8074
8129
8180
8032
8311
7955
8383
7912
8370
7940
8306
8031
8209
8128
8113
8194
8053
8222
8080
8181
8159
8097
8265
8017
8322
7942
8335
7957
8294
8053
8190
8142
8065
8241
7966
8291
7939
8319
8009
8309
8176
8262
8257
8142
8271
8080
8236
8140
8197
8226
8074
8306
7963
8385
7920
8387
7926
8322
7999
8240
8127
8121
8203
8033
8249
8032
8240
8063
8138
8142
8056
8226
7993
8289
8019
8291
8104
8220
8210
8093
8287
7983
8384
7943
8383
7928
8294
7972
8188
8079
8088
8166
8050
8231
8094
8204
8178
8104
8250
8010
8348
7968
8395
7984
8370
8057
8253
8127
8114
8226
8015
8297
7962
8277
7986
8268
8107
8179
8180
8078
8244
8058
8242
8095
8182
8176
8085
8273
7978
8362
7900
8376
7915
8347
7979
8276
8125
8177
8196
8056
8221
8016
8179
8047
8119
8119
8015
8212
7986
8297
7954
8269
8036
8244
8180
8150
8275
8015
8326
7941
8392
7999
8380
8054
8258
8127
8149
8192
8089
8259
8109
8226
8174
8134
8264
8022
8344
7948
8386
7938
8355
7988
8262
8083
8142
8185
8035
8252
7977
8267
7985
8207
8047
8111
8140
8061
8255
8048
8255
8043
8186
8132
8103
8258
7992
8351
7918
8397
7928
8396
8015
8325
8124
8221
8205
8123
8247
8072
8239
8096
8165
8185
8073
8281
7997
8328
7959
8306
7996
8241
8106
8135
8215
8040
8306
7953
8344
7940
8306
7990
8215
8085
8138
8186
8071
8212
8054
8182
8115
8115
8216
8002
8314
7920
8366
7897
8355
7944
8274
8041
8172
8171
8092
8263
8032
8302
8052
8269
8129
8198
8239
8101
8289
8024
8277
8038
8219
8118
8128
8218
8000
8313
7923
8367
7899
8361
7965
8290
8050
8183
8136
8071
8188
8033
8182
8067
8148
8174
8080
8319
8040
8389
7975
8385
8042
8337
8125
8205
8201
8076
8308
8007
8350
7969
8314
8013
8221
8071
8101
8165
8041
8213
8057
8227
8154
8179
8254
8072
8352
7959
8387
7901
8376
7947
8318
8050
8221
8165
8133
8258
8055
8269
8038
8222
8100
8154
8196
8047
8257
7990
8270
7992
8234
8085
8148
8193
8036
8291
7940
8357
7905
8354
7954
8288
8034
8188
8131
8088
8192
8053
8221
8104
8174
8180
8075
8301
8014
8384
7968
8380
7961
8303
8046
8215
8159
8100
8251
7993
8292
7955
8271
8007
8228
8106
8135
8197
8084
8277
8068
8227
8101
8152
8187
8035
8291
7939
8359
7891
8368
7904
8298
7974
8196
8096
8116
8215
8074
8292
8105
8286
8172
8180
8214
8058
8292
7993
8316
7987
8273
8066
8192
8171
8073
8262
7957
8327
7899
8328
7942
8311
8051
8217
8135
8114
8211
8074
8225
8108
8200
8211
8115
8286
8005
8376
7955
8396
7942
8314
7987
8202
8094
8089
8204
8011
8278
7998
8304
8058
8272
8165
8190
8239
8089
8297
8063
8262
8084
8173
8166
8062
8268
7943
8336
7891
8389
7939
8365
8008
8259
8119
8158
8193
8070
8237
8063
8204
8097
8133
8197
8032
8278
7961
8314
7957
8293
8019
8210
8119
8098
8237
7992
8314
7938
8335
7952
8297
8038
8228
8156
8147
8223
8087
8234
8084
8181
8154
8094
8260
8000
8362
7939
8392
7931
8353
7986
8264
8094
8154
8192
8033
8244
7994
8258
8018
8191
8100
8114
8199
8038
8270
8026
8276
8075
8218
8167
8110
8261
7993
8360
7932
8395
7927
8360
7981
8256
8087
8173
8189
8095
8231
8075
8220
8121
8163
8228
8076
8332
7999
8368
7973
8355
8019
8256
8113
8142
8212
8018
8294
7954
8324
7954
8273
8011
8185
8099
8095
8198
8069
8236
8071
8194
8156
8125
8274
8029
8370
7945
8407
7933
8386
7979
8297
8091
8200
8197
8096
8254
8038
8277
8062
8219
8132
8128
8236
8056
8306
8020
8285
8032
8224
8116
8119
8223
8010
8326
7933
8374
7919
8350
7962
8257
8054
8155
8147
8080
8214
8058
8197
8101
8130
8193
8030
8291
7954
8345
7928
8355
7971
8266
8056
8154
8177
8062
8274
7991
8313
7972
8275
8027
8188
8111
8100
8208
8055
8235
8068
8231
8158
8165
8265
8051
8364
7950
8402
7912
8383
7948
8295
8019
8172
8110
8073
8200
8022
8228
8040
8165
8097
8088
8210
8028
8296
7994
8325
8021
8263
8111
8191
8254
8095
8350
7992
8391
7959
8376
7996
8302
8078
8193
8177
8106
8240
8081
8220
8113
8151
8199
8052
8307
7968
8368
7933
8375
7955
8303
8049
8194
8150
8086
8254
8023
8309
8004
8284
8047
8201
8129
8109
8222
8043
8261
8037
8226
8094
8141
8203
8032
8305
7944
8376
7901
8376
7910
8287
7994
8198
8119
8113
8198
8050
8232
8071
8227
8180
8166
8293
8067
8344
8006
8359
8001
8296
8071
8193
8173
8066
8266
7967
8339
7936
8334
7960
8250
8031
8156
8129
8094
8219
8065
8216
8095
8169
8201
8086
8296
7974
8373
7927
8387
7944
8341
8027
8249
8155
8137
8234
8033
8280
8020
8277
8055
8202
8141
8104
8244
8044
8285
8026
8245
8079
8168
8176
8065
8291
7967
8376
7910
8378
7931
8330
8005
8222
8106
8125
8185
8059
8218
8070
8193
8126
8108
8233
8021
8321
7959
8340
7957
8295
8011
8201
8135
8092
8246
8005
8329
7970
8346
7999
8293
8072
8194
8162
8100
8230
8063
8229
8090
8173
8170
8077
8272
7974
8356
7905
8382
7913
8342
7986
8242
8086
8130
8191
8037
8234
8009
8237
8050
8177
8141
8099
8263
8046
8317
8031
8299
8093
8235
8195
8132
8302
8020
8386
7953
8402
7950
8357
8016
8258
8119
8165
8204
8101
8249
8094
8208
8152
8134
8238
8025
8338
7967
8374
7948
8331
8000
8252
8108
8133
8209
8022
8282
7966
8307
7978
8261
8051
8167
8137
8082
8227
8035
8209
8032
8146
8109
8062
8225
7957
8326
7898
8385
7928
8408
8025
8332
8129
8207
8204
8115
8258
8068
8269
8084
8202
8180
8100
8264
8029
8316
7989
8293
8020
8220
8114
8118
8226
8005
8313
7924
8349
7916
8315
7976
8230
8067
8138
8170
8070
8210
8058
8199
8136
8139
8249
8045
8333
7955
8372
7932
8369
7991
8286
8081
8173
8192
8066
8270
8000
8309
8013
8275
8069
8181
8166
8089
8245
8044
8256
8058
8211
8132
8124
8242
8009
8340
7928
8384
7900
8364
7952
8284
8039
8183
8150
8098
8217
8051
8234
8078
8172
8152
8076
8239
8003
8310
7962
8321
7996
8254
8092
8155
8209
8046
8301
7965
8354
7949
8341
7999
8255
8085
8163
8180
8086
8231
8076
8221
8135
8151
8223
8043
8326
7957
8390
7936
8382
7960
8304
8043
8187
8166
8098
8253
8022
8279
8015
8249
8065
8166
8158
8072
8248
8026
8267
8041
8245
8127
8163
8222
8040
8325
7951
8383
7915
8381
7956
8301
8037
8213
8148
8116
8204
8057
8232
8078
8172
8166
8092
8261
8011
8335
7964
8343
7971
8284
8065
8187
8170
8075
8274
7984
8333
7970
8327
7999
8255
8089
8171
8182
8084
8237
8060
8220
8114
8153
8205
8041
8302
7956
8383
7908
8389
7936
8325
8018
8231
8144
8122
8224
8043
8265
8030
8251
8094
8177
8189
8082
8268
8013
8305
8013
8257
8079
8171
8193
8064
8289
7963
8372
7920
8371
7952
8325
8043
8216
8132
8130
8202
8069
8232
8091
8178
8161
8084
8247
7992
8334
7940
8352
7943
8304
8018
8209
8131
8100
8240
8003
8321
7987
8331
8016
8247
8089
8168
8187
8092
8268
8079
8256
8120
8179
8204
8087
8301
7973
8378
7919
8396
7928
8348
7995
8242
8108
8137
8206
8060
8243
8041
8230
8084
8158
8178
8061
8266
7995
8306
7990
8280
8063
8196
8167
8095
8278
7987
8352
7931
8374
7955
8324
8028
8233
8136
8145
8212
8084
8240
8087
8192
8164
8093
8252
7999
8350
7941
8376
7929
8322
7995
8231
8101
8118
8205
8013
8271
7980
8292
8015
8238
8089
8151
8185
8066
8256
8040
8244
8069
8182
8166
8087
8273
7978
8366
7918
8392
7920
8361
7986
8256
8090
8161
8188
8068
8233
8064
8242
8114
8179
8191
8059
8279
7992
8325
7981
8305
8025
8225
8127
8109
8236
7998
8323
7950
8368
7964
8329
8033
8243
8136
8148
8207
8078
8244
8085
8199
8160
8113
8247
8007
8345
7935
8380
7926
8360
7978
8265
8092
8164
8198
8065
8276
8023
8290
8032
8228
8104
8157
8207
8071
8272
8034
8266
8054
8203
8141
8106
8246
7981
8343
7917
8377
7907
8347
7965
8263
8073
8169
8171
8083
8226
8056
8222
8106
8165
8191
8059
8293
7991
8337
7958
8328
7997
8245
8098
8138
8213
8046
8309
7961
8330
7950
8300
8015
8222
8116
8147
8212
8083
8249
8087
8211
8150
8122
8239
8008
8335
7936
8385
7913
8374
7957
8281
8060
8182
8173
8089
8257
8044
8284
8046
8241
8104
8129
8198
8045
8270
8004
8276
8028
8220
8115
8125
8229
8014
8325
7934
8377
7922
8373
7973
8284
8069
8193
8173
8108
8227
8075
8219
8105
8155
8197
8058
8290
7976
8345
7946
8350
7985
8282
8075
8166
8179
8055
8269
7979
8325
7974
8300
8021
8205
8109
8117
8191
8062
8231
8061
8212
8132
8136
8240
8047
8350
7953
8406
7931
8397
7967
8325
8063
8220
8166
8119
8237
8051
8277
8068
8232
8130
8136
8216
8049
8294
7995
8306
8015
8250
8097
8155
8210
8047
8301
7945
8363
7919
8349
7957
8280
8051
8190
8154
8098
8207
8065
8210
8101
8156
8189
8060
8280
7969
8359
7940
8369
7960
8305
8053
8210
8165
8098
8260
8006
8315
8000
8299
8036
8205
8112
8123
8217
8056
8265
8046
8229
8106
8146
8204
8033
8306
7948
8379
7903
8381
7931
8310
8005
8210
8125
8122
8213
8056
8242
8052
8202
8121
8129
8224
8045
8310
7990
8323
7986
8270
8069
8187
8179
8082
8289
7986
8362
7946
8359
7986
8314
8064
8207
8158
8109
8205
8065
8208
8088
8159
8181
8072
8285
7993
8363
7930
8384
7937
8326
8015
8228
8126
8117
8223
8024
8280
8000
8283
8045
8209
8127
8119
8224
8048
8278
8037
8254
8091
8178
8183
8072
8296
7972
8381
7919
8387
7929
8337
8002
8246
8118
8138
8196
8070
8228
8067
8213
8130
8130
8221
8040
8310
7969
8343
7970
8299
8018
8209
8134
8103
8245
7997
8332
7953
8340
7976
8295
8045
8201
8150
8108
8215
8066
8228
8083
8180
8171
8084
8268
7989
8366
7924
8391
7924
8353
7984
8254
8095
8143
8202
8055
8262
8023
8274
8058
8209
8137
8116
8229
8045
8286
8017
8271
8050
8204
8154
8092
8261
7977
8347
7918
8379
7921
8345
7991
8256
8093
8153
8182
8085
8227
8080
8217
8126
8137
8209
8025
8308
7956
8348
7942
8328
8000
8254
8111
8144
8225
8046
8307
7990
8348
8003
8312
8070
8212
8168
8120
8244
8076
8248
8068
8185
8141
8103
8250
7994
8351
7926
8397
7919
8376
7973
8286
8072
8170
8168
8069
8227
8024
8242
8056
8189
8127
8103
8234
8037
8302
8004
8298
8040
8242
8133
8136
8226
8003
8312
7933
8371
7930
8348
7983
8255
8065
8169
8172
8092
8220
8073
8208
8116
8139
8213
8037
8306
7959
8371
7936
8358
7972
8288
8069
8171
8177
8074
8267
7995
8310
7996
8281
8063
8201
8141
8103
8223
8050
8247
8058
8226
8144
8147
8241
8023
8329
7937
8398
7914
8384
7958
8311
8042
8206
8161
8110
8227
8056
8252
8079
8202
8157
8104
8236
8013
8304
7981
8315
7987
8253
8077
8152
8188
8046
8294
7957
8345
7938
8337
7975
8254
8063
8173
8166
8083
8213
8070
8221
8108
8150
8203
8047
8316
7968
8374
7929
8385
7956
8318
8046
8207
8150
8099
8252
8033
8309
8024
8284
8066
8196
8158
8107
8244
8041
8274
8033
8227
8096
8151
8203
8052
8304
7951
8374
7904
8381
7934
8319
8014
8211
8126
8127
8206
8071
8244
8082
8189
8143
8102
8237
8014
8321
7969
8342
7973
8297
8052
8203
8167
8096
8272
7998
8340
7963
8344
8004
8293
8079
8193
8182
8106
8242
8079
8234
8101
8166
8186
8065
8284
7965
8366
7907
8379
7921
8325
8002
8234
8112
8118
8203
8032
8256
8019
8251
8064
8182
8154
8084
8254
8025
8296
8015
8265
8076
8189
8184
8093
8288
7977
8373
7934
8389
7943
8338
8016
8238
8120
8146
8207
8090
8249
8090
8205
8156
8122
8248
8016
8321
7948
8346
7940
8309
8008
8219
8119
8114
8233
8016
8313
7980
8324
8003
8276
8078
8181
8168
8087
8234
8053
8231
8083
8179
8170
8079
8272
7980
8365
7926
8406
7930
8366
7982
8258
8095
8160
8199
8065
8245
8035
8248
8077
8177
8167
8097
8264
8020
8313
8009
8296
8039
8219
8146
8109
8256
8003
8348
7937
8377
7939
8329
8006
8241
8109
8143
8188
8074
8229
8075
8189
8142
8122
8235
8014
8331
7954
8376
7938
8356
7997
8260
8098
8156
8211
8055
8292
7999
8313
8014
8269
8081
8185
8175
8089
8252
8048
8253
8064
8197
8147
8097
8252
7985
8347
7911
8383
7907
8372
7968
8279
8070
8168
8162
8093
8232
8049
8242
8086
8181
8171
8088
8265
8011
8324
7976
8323
8024
8255
8130
8156
8240
8040
8320
7954
8356
7953
8337
8009
8265
8117
8159
8181
8084
8224
8066
8203
8135
8128
8221
8021
8325
7944
8380
7918
8362
7958
8282
8061
8172
8168
8075
8251
8010
8296
8022
8257
8084
8177
8183
8079
8254
8034
8269
8049
8230
8139
8140
8234
8018
8328
7934
8383
7911
8380
7958
8299
8051
8202
8164
8110
8226
8068
8237
8089
8171
8175
8078
8255
7994
8331
7961
8341
7985
8267
8071
8169
8192
8061
8288
7974
8352
7963
8328
8004
8249
8098
8169
8195
8089
8239
8068
8218
8126
8148
8221
8039
8311
7947
8381
7922
8398
7952
8323
8055
8223
8155
8115
8241
8039
8278
8029
8249
8092
8161
8176
8065
8256
8009
8293
8017
8248
8100
8149
8196
8044
8290
7936
8355
7911
8369
7947
8311
8040
8215
8148
8126
8211
8078
8234
8103
8183
8181
8094
8273
8010
8356
7957
8368
7969
8301
8049
8196
8151
8080
8247
7996
8323
7969
8309
8012
8247
8101
8159
8192
8083
8242
8048
8218
8100
8155
8190
8036
8287
7944
8367
7902
8380
7923
8321
7999
8220
8115
8134
8214
8059
8260
8046
8239
8088
8161
8195
8070
8280
8008
8314
8007
8280
8078
8191
8183
8083
8285
7975
8367
7930
8373
7961
8324
8045
8228
8147
8140
8216
8086
8239
8089
8180
8161
8087
8253
7985
8338
7927
8363
7937
8324
8006
8227
8123
8118
8226
8024
8294
7990
8305
8016
8236
8089
8140
8188
8066
8256
8050
8247
8093
8179
8177
8081
8286
7978
8373
7911
8390
7924
8362
8004
8276
8122
8170
8208
8090
8255
8066
8244
8103
8161
8197
8058
8281
7989
8326
7983
8305
8056
8226
8139
8107
8253
7995
8323
7940
8349
7948
8302
8017
8214
8108
8124
8200
8077
8227
8086
8196
8159
8102
8244
7991
8333
7927
8375
7927
8353
7986
8261
8102
8161
8202
8067
8282
8018
8296
8030
8234
8102
8141
8197
8057
8263
8030
8260
8062
8199
8141
8094
8246
7987
8351
7918
8393
7920
8357
7972
8266
8079
8173
8175
8086
8223
8057
8217
8103
8161
8198
8058
8279
7980
8348
7963
8332
8007
8254
8106
8138
8216
8035
8312
7971
8349
7975
8320
8046
8241
8138
8153
8210
8082
8249
8078
8200
8138
8113
8240
8011
8334
7923
8379
7906
8363
7951
8277
8053
8168
8173
8088
8247
8031
8282
8046
8226
8109
8132
8196
8048
8271
8016
8303
8056
8246
8138
8141
8239
8019
8333
7941
8389
7932
8369
7981
8287
8072
8193
8166
8104
8230
8078
8220
8108
8152
8194
8050
8289
7977
8350
7944
8345
7971
8272
8076
8165
8189
8058
8273
7979
8320
7974
8304
8031
8228
8127
8135
8209
8078
8257
8070
8216
8128
8126
8224
8020
8316
7939
8391
7910
8377
7945
8306
8053
8210
8157
8112
8235
8048
8262
8057
8220
8109
8128
8203
8043
8287
7998
8302
8011
8251
8092
8152
8198
8040
8300
7955
8365
7924
8364
7969
8287
8059
8194
8162
8112
8219
8071
8213
8109
8167
8199
8072
8304
7984
8369
7941
8377
7968
8308
8050
8200
8164
8094
8265
8007
8307
7998
8305
8038
8219
8127
8126
8217
8064
8263
8053
8232
8106
8145
8198
8027
8301
7941
8382
7907
8387
7937
8320
8024
8221
8126
8129
8217
8061
8235
8062
8212
8124
8130
8219
8045
8298
7990
8319
7987
8273
8069
8185
8174
8078
8290
7987
8373
7961
8372
7990
8318
8064
8209
8153
8109
8219
8067
8216
8092
8165
8180
8067
8272
7972
8353
7919
8376
7931
8314
8006
8225
8128
8120
8228
8029
8283
8008
8284
8047
8211
8128
8113
8217
8046
8278
8041
8251
8089
8176
8185
8078
8293
7963
8372
7911
8393
7930
8344
8012
8246
8115
8149
8204
8072
8233
8067
8206
8125
8122
8217
8034
8306
7970
8339
7965
8299
8034
8209
8134
8094
8246
8003
8334
7957
8343
7974
8296
8049
8194
8148
8103
8210
8067
8227
8093
8187
8170
8093
8277
7988
8357
7912
8378
7913
8346
7986
8260
8105
8152
8213
8065
8277
8040
8291
8079
8219
8155
8116
8229
8055
8289
8016
8270
8068
8195
8153
8089
8260
7972
8347
7913
8377
7923
8339
7989
8252
8097
8155
8187
8079
8226
8070
8201
8121
8127
8220
8032
8315
7962
8362
7960
8328
8007
8250
8117
8144
8229
8030
8308
7986
8338
7988
8299
8068
8207
8165
8116
8238
8064
8242
8078
8182
8148
8091
8248
7985
8347
7910
8382
7908
8354
7965
8272
8072
8169
8184
8081
8246
8038
8262
8067
8199
8140
8102
8234
8033
8304
8010
8295
8042
8237
8139
8129
8246
8012
8332
7941
8379
7936
8349
7991
8260
8089
8175
8188
8098
8243
8085
8208
8127
8135
8216
8032
8314
7952
8364
7936
8349
7960
8261
8073
8163
8180
8057
8267
7985
8318
8002
8281
8065
8201
8155
8103
8242
8055
8258
8060
8210
8135
8116
8238
8013
8346
7936
8407
7923
8392
7975
8312
8072
8210
8178
8121
8246
8068
8256
8078
8194
8151
8102
8234
8018
8311
7974
8308
7993
8249
8087
8149
8204
8036
8297
7945
8355
7934
8343
7991
8267
8071
8169
8175
8093
8233
8074
8221
8123
8147
8213
8044
8325
7959
8377
7921
8370
7952
8296
8048
8198
8171
8102
8265
8028
8303
8016
8278
8066
8195
8166
8099
8243
8033
8257
8043
8233
8112
8146
8216
8027
8314
7947
8388
7919
8392
7951
8314
8040
8209
8140
8115
8215
8066
8244
8075
8185
8153
8093
8243
8012
8320
7973
8342
7987
8286
8068
8190
8183
8073
8278
7987
8356
7964
8345
8003
8278
8075
8178
8165
8090
8231
8068
8217
8111
8158
8193
8047
8292
7961
8377
7923
8392
7941
8322
8021
8226
8131
8111
8217
8023
8258
8009
8250
8062
8176
8146
8091
8254
8029
8287
8018
8252
8091
8170
8195
8070
8303
7966
8382
7924
8390
7947
8335
8029
8237
8139
8145
8214
8086
8243
8093
8198
8163
8102
8240
8012
8331
7951
8355
7958
8302
8039
8206
8138
8092
8242
8000
8326
7964
8324
7999
8267
8076
8177
8177
8093
8241
8065
8231
8109
8177
8200
8087
8295
7975
8382
7923
8399
7934
8356
8003
8254
8118
8148
8207
8060
8257
8041
8258
8089
8182
8173
8083
8265
8016
8302
7999
8268
8055
8190
8160
8076
8259
7974
8352
7927
8368
7934
8331
8014
8235
8128
8142
8201
8082
8239
8073
8182
8148
8100
8241
8008
8338
7948
8368
7944
8332
8007
8247
8126
8147
8237
8031
8300
7995
8320
8017
8268
8087
8170
8179
8086
8247
8050
8242
8076
8177
8164
8084
8268
7974
8360
7916
8386
7912
8352
7979
8258
8085
8147
8180
8065
8241
8047
8242
8085
8169
8176
8075
8268
8013
8314
7985
8294
8032
8217
8130
8110
8244
8004
8349
7951
8373
7956
8338
8021
8245
8124
8154
8205
8083
8238
8077
8196
8152
8117
8237
8004
8328
7932
8385
7928
8353
7977
8261
8088
8155
8196
8058
8270
7999
8302
8023
8257
8094
8179
8195
8085
8265
8044
8267
8069
8205
8146
8114
8255
7996
8354
7931
8402
7925
8380
7978
8283
8083
8189
8181
8107
8237
8064
8237
8094
8165
8173
8057
8260
7985
8318
7961
8309
7995
8239
8092
8137
8208
8019
8295
7955
8355
7965
8327
8015
8243
8111
8158
8206
8091
8239
8078
8209
8144
8130
8235
8027
8334
7938
8382
7913
8374
7969
8307
8079
8198
8188
8095
8258
8025
8291
8040
8245
8098
8146
8185
8061
8263
8013
8261
8025
8216
8111
8125
8226
8006
8320
7933
8378
7919
8377
7960
8293
8054
8189
8163
8116
8220
8071
8231
8092
8163
8184
8076
8284
7994
8346
7957
8356
7986
8280
8078
8182
8197
8077
8294
7993
8349
7981
8326
8030
8249
8110
8153
8200
8080
8241
8057
8205
8117
8130
8212
8019
8310
7935
8378
7900
8379
7940
8299
8027
8212
8142
8107
8229
8041
8275
8044
8240
8105
8160
8202
8062
8281
8013
8307
8021
8257
8101
8161
8197
8049
8307
7957
8376
7929
8379
7969
8313
8045
8205
8152
8111
8215
8063
8219
8096
8169
8181
8076
8272
7989
8348
7943
8367
7961
8305
8048
8202
8153
8096
8256
8006
8319
7982
8301
8034
8236
8108
8138
8200
8064
8254
8061
8237
8113
8164
8210
8062
8312
7969
8388
7916
8393
7932
8334
8010
8235
8131
8140
8221
8061
8249
8054
8219
8111
8137
8201
8050
8283
7987
8310
7989
8268
8065
8181
8163
8076
8280
7973
8357
7933
8365
7959
8305
8039
8216
8148
8120
8208
8069
8224
8089
8170
8175
8076
8275
7987
8351
7937
8384
7946
8333
8025
8245
8137
8130
8239
8034
8295
8005
8301
8041
8227
8112
8128
8205
8057
8254
8037
8238
8080
8167
8169
8066
8280
7964
8367
7911
8390
7925
8343
7989
8246
8105
8149
8205
8072
8236
8067
8223
8113
8147
8212
8054
8304
7983
8340
7976
8303
8042
8225
8146
8109
8254
7994
8338
7956
8357
7979
8316
8044
8218
8144
8122
8211
8075
8226
8090
8191
8170
8103
8261
7988
8361
7930
8387
7924
8356
7991
8257
8099
8151
8212
8060
8270
8025
8284
8049
8224
8122
8131
8213
8050
8274
8024
8269
8055
8198
8150
8095
8253
7978
8355
7930
8394
7931
8364
7993
8267
8094
8171
8192
8098
8239
8071
8213
8109
8136
8198
8035
8291
7957
8335
7946
8320
8006
8252
8099
8130
8210
8020
8299
7968
8339
7981
8317
8047
8218
8141
8127
8216
8069
8241
8077
8200
8153
8112
8244
7995
8341
7924
8395
7925
8388
7989
8309
8093
8192
8194
8103
8260
8041
8273
8059
8214
8129
8118
8209
8036
8280
8006
8280
8023
8212
8106
8115
8221
8006
8326
7931
8377
7923
8351
7973
8271
8066
8163
8168
8090
8223
8067
8210
8111
8145
8208
8049
8312
7982
8373
7944
8361
7980
8282
8086
8179
8197
8063
8279
7990
8328
7991
8297
8044
8212
8130
8112
8210
8053
8240
8059
8207
8120
8131
8224
8007
8318
7924
8388
7908
8376
7949
8298
8054
8197
8147
8102
8229
8047
8260
8067
8201
8137
8121
8233
8037
8303
7998
8325
8014
8262
8108
8169
8221
8065
8318
7973
8384
7949
8369
7987
8281
8063
8192
8169
8102
8220
8069
8212
8107
8152
8196
8044
8287
7959
8355
7923
8368
7953
8305
8048
8191
8160
8091
8254
8012
8308
8006
8283
8060
8207
8140
8118
8223
8053
8266
8048
8241
8115
8149
8211
8052
8320
7952
8395
7923
8397
7952
8344
8035
8232
8141
8130
8215
8061
8249
8063
8192
8121
8096
8229
8018
8305
7964
8319
7980
8275
8057
8179
8172
8071
8276
7973
8345
7952
8361
7995
8290
8070
8195
8176
8115
8245
8081
8232
8109
8175
8195
8069
8287
7969
8368
7922
8388
7943
8329
8008
8228
8123
8125
8232
8046
8281
8019
8270
8061
8201
8146
8114
8245
8041
8276
8019
8248
8076
8162
8173
8060
8281
7957
8366
7917
8384
7939
8333
8010
8232
8113
8143
8207
8076
8223
8076
8199
8146
8112
8228
8025
8313
7964
8356
7967
8318
8050
8229
8157
8118
8260
8014
8333
7974
8343
7994
8285
8064
8192
8162
8094
8229
8062
8232
8083
8174
8173
8076
8268
7972
8355
7911
8382
7917
8347
7988
8257
8110
8159
8209
8059
8257
8032
8263
8068
8190
8159
8096
8236
8027
8300
8011
8274
8064
8202
8154
8105
8261
7990
8362
7927
8386
7944
8352
8011
8259
8111
8160
8196
8083
8238
8077
8199
8137
8123
8217
8016
8318
7947
8357
7940
8325
7988
8249
8105
8139
8215
8030
8297
7978
8316
8001
8276
8062
8186
8162
8097
8242
8054
8243
8075
8200
8161
8107
8268
8000
8362
7941
8403
7928
8386
7984
8288
8083
8183
8185
8087
8238
8046
8251
8071
8179
8140
8085
8243
8009
8299
7981
8292
8018
8230
8123
8127
8228
8012
8328
7946
8368
7945
8342
7996
8254
8086
8162
8183
8082
8230
8073
8204
8136
8123
8228
8029
8322
7949
8366
7923
8363
7975
8287
8092
8186
8199
8086
8280
8015
8310
8014
8277
8073
8185
8168
8092
8240
8041
8257
8054
8204
8123
8119
8237
8006
8328
7926
8390
7911
8376
7954
8288
8044
8194
8160
8112
8230
8058
8247
8086
8185
8158
8089
8255
8012
8326
7984
8331
8004
8276
8104
8170
8214
8066
8311
7977
8363
7961
8346
8011
8264
8088
8169
8181
8088
8227
8061
8204
8112
8130
8208
8027
8301
7947
8374
7913
8372
7952
8306
8050
8205
8160
8092
8243
8018
8288
8021
8261
8081
8177
8173
8085
8255
8035
8291
8041
8245
8116
8153
8218
8054
8320
7959
8396
7922
8385
7957
8321
8034
8212
8146
8121
8208
8067
8233
8083
8182
8161
8084
8246
7994
8326
7947
8341
7960
8282
8057
8190
8163
8075
8263
7987
8336
7968
8339
8017
8276
8091
8175
8182
8085
8235
8059
8221
8118
8157
8198
8051
8292
7959
8388
7925
8397
7942
8330
8029
8240
8139
8131
8228
8056
8265
8042
8256
8090
8172
8179
8075
8252
8003
8287
8003
8256
8076
8177
8174
8061
8284
7953
8360
7919
8377
7943
8312
8018
8218
8125
8129
8209
8085
8241
8101
8198
8178
8101
8266
8015
8354
7957
8371
7962
8326
8049
8236
8146
8123
8252
8016
8308
7982
8320
8013
8264
8087
8163
8187
8076
8247
8055
8231
8091
8164
8177
8066
8281
7966
8373
7914
8392
7922
8342
7990
8241
8096
8131
8196
8055
8241
8041
8239
8094
8170
8187
8076
8283
8016
8315
7996
8290
8063
8208
8167
8102
8272
7997
8366
7948
8381
7960
8326
8032
8240
8133
8143
8202
8081
8229
8073
8177
8146
8089
8240
7992
8328
7930
8367
7928
8327
7993
8249
8116
8141
8218
8042
8287
8000
8296
8021
8254
8097
8154
8189
8084
8256
8044
8254
8093
8200
8164
8093
8276
7988
8366
7925
8404
7933
8370
7991
8272
8087
8169
8182
8077
8229
8050
8230
8092
8153
8179
8052
8264
7979
8314
7965
8298
8007
8223
8121
8124
8243
8020
8329
7964
8366
7967
8332
8031
8233
8114
8144
8201
8083
8238
8082
8201
8148
8119
8251
8015
8344
7944
8385
7922
8366
7983
8285
8095
8179
8200
8074
8273
8018
8291
8033
8235
8096
8142
8192
8056
8264
8014
8254
8047
8201
8131
8103
8234
7987
8324
7917
8382
7910
8363
7972
8281
8066
8179
8169
8094
8227
8072
8238
8109
8167
8196
8075
8298
8003
8350
7975
8347
8008
8270
8108
8164
8222
8057
8313
7982
8347
7970
8316
8024
8225
8112
8144
8199
8074
8231
8064
8188
8120
8112
8223
8002
8326
7925
8371
7901
8367
7941
8275
8041
8180
8154
8085
8240
8029
8277
8051
8242
8121
8163
8216
8073
8296
8031
8312
8061
8261
8134
8154
8237
8038
8337
7951
8385
7930
8373
7967
8286
8047
8186
8147
8085
8206
8059
8206
8092
8143
8178
8052
8290
7984
8350
7947
8366
7995
8305
8093
8207
8200
8085
8285
7999
8326
7981
8305
8026
8220
8099
8110
8187
8047
8219
8039
8199
8121
8138
8219
8024
8321
7948
8402
7932
8408
7967
8335
8062
8233
8160
8133
8243
8070
8277
8059
8225
8114
8136
8215
8054
8293
7996
8304
8000
8254
8086
8158
8186
8047
8294
7959
8369
7925
8355
7964
8296
8046
8191
8132
8094
8196
8058
8202
8088
8155
8178
8052
8263
7963
8340
7929
8377
7974
8334
8069
8236
8172
8120
8270
8032
8326
8012
8313
8057
8244
8139
8136
8212
8062
8265
8048
8239
8107
8164
8206
8059
8312
7951
8380
7903
8379
7922
8317
8000
8214
8109
8119
8192
8048
8228
8049
8208
8120
8130
8217
8049
8310
7996
8339
7994
8294
8071
8200
8173
8087
8285
7994
8354
7951
8364
7979
8309
8054
8212
8155
8110
8213
8072
8223
8097
8170
8185
8078
8277
7990
8369
7939
8388
7936
8328
8000
8238
8127
8136
8227
8036
8275
8003
8268
8022
8192
8094
8090
8177
8010
8224
7990
8212
8042
8156
8159
8070
8294
8002
8425
7974
8446
7973
8388
8053
8298
8152
8178
8212
8091
8243
8068
8203
8122
8123
8210
8032
8299
7972
8333
7964
8309
8037
8227
8138
8107
8245
7995
8321
7956
8342
7972
8300
8054
8209
8153
8110
8208
8059
8215
8070
8171
8153
8081
8254
7963
8341
7906
8378
7914
8357
8003
8283
8122
8177
8233
8093
8289
8045
8283
8060
8207
8127
8104
8224
8034
8270
7998
8257
8047
8187
8132
8072
8237
7966
8345
7909
8369
7923
8344
7990
8254
8094
8141
8173
8075
8221
8067
8195
8101
8100
8195
8006
8270
7923
8305
7914
8293
7979
8224
8107
8150
8234
8031
8297
7977
8342
8026
8351
8124
8263
8213
8162
8266
8096
8275
8113
8235
8204
8136
8279
8008
8375
7956
8426
7956
8394
7976
8276
8077
8169
8195
8100
8266
8054
8272
8069
8203
8160
8117
8236
8029
8291
7994
8283
8029
8219
8122
8106
8228
7999
8324
7926
8368
7934
8345
7989
8250
8051
8089
8098
8020
8150
8016
8141
8068
8076
8172
7987
8276
7943
8375
7991
8449
8096
8351
8141
8203
8252
8110
8325
8020
8333
7998
8284
8057
8192
8133
8090
8233
8052
8244
8058
8201
8145
8125
8259
8020
8359
7938
8404
7915
8375
7962
8295
8081
8208
8187
8124
8250
8055
8245
8055
8166
8113
8056
8206
7987
8284
7969
8300
8015
8265
8131
8164
8231
8042
8302
7933
8331
7912
8326
7986
8262
8086
8171
8179
8085
8246
8093
8223
8152
8154
8233
8051
8337
7989
8412
7958
8392
7980
8291
8059
8177
8165
8067
8244
7998
8288
7988
8242
8035
8140
8120
8078
8240
8039
8258
8031
8205
8105
8115
8213
8018
8346
7946
8393
7911
8365
7945
8293
8030
8177
8119
8070
8186
8029
8225
8076
8184
8172
8109
8275
8050
8369
8015
8375
8020
8295
8099
8197
8229
8084
8307
7982
8363
7969
8365
8039
8316
8122
8186
8180
8081
8221
8062
8203
8102
8137
8207
8041
8322
7965
8393
7931
8387
7949
8319
8048
8218
8156
8107
8240
8031
8286
8029
8261
8077
8184
8177
8090
8254
8039
8287
8025
8241
8118
8166
8228
8056
8307
7935
8360
7902
8361
7934
8280
7997
8166
8096
8078
8180
8050
8224
8073
8177
8170
8112
8293
8040
8365
7998
8389
7993
8310
8061
8193
8155
8061
8237
7957
8319
7960
8339
8017
8283
8110
8192
8198
8095
8240
8065
8219
8107
8153
8200
8049
8286
7935
8332
7862
8338
7865
8242
7902
8113
8001
8043
8203
8104
8352
8120
8321
8153
8243
8269
8178
8366
8123
8396
8082
8319
8125
8210
8204
8085
8292
7976
8361
7921
8391
7987
8370
8047
8228
8102
8083
8154
8030
8178
8037
8128
8105
8075
8271
8041
8371
7964
8379
7978
8344
8032
8202
8102
8076
8201
7987
8286
7973
8299
7990
8227
8073
8152
8178
8106
8304
8115
8293
8131
8215
8213
8098
8289
7962
8367
7919
8407
7928
8347
7988
8244
8095
8141
8198
8061
8233
8030
8238
8106
8190
8203
8083
8279
8012
8323
8013
8310
8086
8239
8178
8113
8269
7987
8338
7924
8351
7930
8304
7987
8196
8084
8107
8178
8047
8164
8024
8135
8110
8053
8189
7943
8282
7895
8362
7926
8359
8058
8318
8163
8185
8250
8067
8308
8032
8336
8055
8287
8121
8168
8189
8073
8250
8050
8267
8069
8170
8143
8088
8257
7962
8324
7875
8350
7894
8381
8026
8321
8144
8217
8209
8086
8221
8031
8196
8065
8119
8167
8083
8322
8061
8386
8008
8323
8029
8237
8119
8104
8219
8003
8323
7939
8336
7936
8288
7981
8213
8113
8148
8195
8062
8199
8066
8207
8183
8150
8277
8018
8345
7944
8410
7949
8395
8021
8306
8090
8167
8191
8051
8236
7982
8238
7983
8188
8059
8104
8171
8073
8297
8066
8307
8073
8229
8145
8097
8213
7964
8309
7907
8374
7907
8349
7968
8289
8108
8233
8244
8167
8288
8106
8247
8098
8157
8190
8076
8308
8019
8402
8019
8380
8022
8270
8099
8145
8199
8037
8297
7958
8326
7941
8283
7982
8172
8045
8051
8099
7968
8150
8033
8214
8170
8177
8306
8099
8384
7942
8385
7924
8411
8019
8337
8087
8203
8196
8140
8299
8061
8291
8049
8228
8103
8121
8179
8029
8259
7998
8282
8039
8254
8145
8162
8243
8027
8328
7935
8377
7914
8354
7956
8268
8050
8181
8150
8087
8210
8067
8200
8079
8104
8103
7967
8187
7889
8266
7876
8288
7936
8266
8079
8204
8236
8126
8367
8082
8391
7994
8277
7988
8176
8055
8060
8130
8001
8162
8006
8184
8122
8146
8264
8076
8383
8014
8480
8013
8496
8055
8417
8125
8282
8234
8201
8297
8094
8319
8097
8253
8122
8118
8189
8007
8241
7937
8222
7959
8235
8105
8178
8209
8036
8285
7917
8328
7896
8337
7959
8322
8127
8283
8248
8186
8250
8094
8220
8105
8169
8209
8096
8339
8017
8385
7934
8351
7945
8286
8026
8166
8118
8050
8238
8025
8376
8059
8343
8086
8251
8144
8120
8198
8031
8210
8006
8193
8070
8104
8167
8030
8323
7945
8364
7882
8359
7909
8300
8006
8201
8081
8058
8166
8010
8202
8032
8193
8104
8123
8241
8064
8328
7992
8319
7981
8262
8063
8166
8146
7994
8205
7892
8267
7875
8329
7985
8330
8101
8226
8180
8114
8202
8050
8207
8119
8224
8271
8167
8383
8070
8454
8012
8455
8002
8369
8050
8243
8140
8124
8242
8029
8310
8032
8299
8055
8212
8126
8100
8198
8034
8265
8047
8264
8111
8185
8206
8075
8305
7963
8372
7908
8375
7914
8324
7990
8219
8096
8113
8173
8036
8199
8030
8149
8067
8070
8183
7992
8269
7932
8301
7951
8295
8051
8203
8140
8078
8241
7993
8355
7968
8355
7966
8236
7986
8111
8061
8028
8144
8007
8168
8033
8107
8086
7976
8190
7928
8343
7927
8441
8040
8508
8184
8415
8259
8276
8340
8182
8391
8134
8376
8151
8282
8198
8137
8216
8003
8224
7959
8212
8026
8175
8192
8140
8353
8082
8452
7988
8430
7945
8348
8012
8258
8113
8150
8209
8101
8249
8065
8174
8102
8105
8203
7995
8284
7944
8351
7970
8353
8047
8250
8127
8115
8218
8007
8303
7952
8286
7922
8210
8006
8145
8097
8052
8164
8004
8169
8022
8144
8141
8103
8294
8008
8382
7965
8467
7987
8395
7987
8270
8095
8168
8193
8068
8258
8054
8280
8083
8214
8165
8118
8253
8046
8351
8054
8321
8040
8203
8129
8089
8228
7970
8296
7885
8333
7875
8273
7935
8206
8087
8212
8264
8170
8286
8109
8229
8155
8142
8234
8033
8320
7961
8373
7947
8352
7988
8249
8081
8127
8181
8016
8275
7970
8307
7993
8273
8039
8133
8086
8031
8158
7998
8208
8058
8209
8146
8106
8246
7990
8334
7906
8386
7918
8372
7992
8379
8188
8282
8255
8172
8306
8109
8301
8120
8221
8176
8106
8241
8007
8289
7941
8225
7902
8106
7962
7985
8097
7903
8221
7863
8315
7941
8404
8119
8405
8240
8297
8296
8162
8267
8078
8199
8158
8186
8265
8057
8331
7957
8392
7955
8387
8015
8375
8191
8290
8275
8142
8324
8047
8341
8045
8288
8079
8183
8161
8078
8217
8019
8235
8029
8205
8130
8123
8226
8003
8321
7916
8369
7882
8341
7929
8280
8026
8148
8089
8041
8182
8022
8210
8057
8139
8119
8052
8222
7988
8302
7971
8355
8050
8310
8126
8196
8215
8052
8300
7978
8360
7959
8334
7988
8255
8090
8190
8209
8113
8248
8064
8194
8095
8121
8193
8007
8280
7935
8379
7934
8413
7989
8334
8083
8245
8184
8112
8243
8027
8290
8019
8260
8079
8172
8138
8046
8180
7959
8205
7984
8208
8080
8128
8205
8074
8372
8002
8440
7976
8413
7972
8319
8043
8215
8141
8114
8197
8054
8237
8098
8203
8196
8137
8296
8016
8336
7957
8332
7941
8244
8034
8187
8178
8086
8249
7943
8281
7903
8277
7979
8263
8114
8206
8248
8164
8316
8137
8286
8159
8191
8229
8080
8342
7979
8380
7891
8346
7867
8250
7956
8179
8102
8097
8213
8058
8294
8059
8280
8117
8209
8213
8104
8277
8029
8306
8033
8280
8105
8177
8181
8048
8276
7946
8349
7902
8356
7939
8330
8060
8253
8152
8141
8223
8082
8241
8091
8189
8156
8072
8234
7975
8323
7934
8352
7946
8303
8021
8213
8132
8104
8221
7967
8256
7924
8257
7939
8155
7996
8081
8150
8087
8280
8090
8264
8129
8207
8229
8106
8347
8050
8481
8022
8470
7982
8388
8025
8250
8095
8121
8185
8052
8229
8014
8185
8047
8125
8162
8063
8288
8052
8364
8028
8307
8082
8232
8199
8132
8319
8055
8414
7978
8395
7980
8334
8021
8207
8086
8092
8166
8057
8204
8073
8221
8229
8165
8286
8001
8319
7907
8340
7898
8309
8009
8293
8162
8166
8235
8041
8293
8008
8302
8002
8225
8077
8150
8191
8091
8269
8056
8260
8084
8188
8165
8092
8271
7969
8335
7885
8359
7886
8326
7963
8249
8087
8172
8202
8093
8227
8046
8214
8096
8158
8187
8058
8274
7971
8313
7960
8287
8013
8205
8103
8104
8225
7999
8340
7974
8373
7961
8316
8007
8204
8086
8114
8175
8063
8246
8086
8177
8143
8117
8258
8023
8359
7945
8396
7942
8377
7985
8272
8080
8154
8181
8056
8252
8009
8297
8039
8254
8120
8161
8191
8054
8251
8011
8243
8026
8175
8120
8104
8264
8024
8365
7931
8392
7918
8368
7974
8285
8112
8219
8217
8124
8250
8112
8284
8160
8203
8224
8083
8302
7990
8331
7944
8303
7971
8235
8078
8134
8201
8031
8297
7969
8316
7888
8197
7907
8091
7979
7992
8075
7991
8200
8087
8250
8192
8198
8349
8145
8460
8071
8536
8048
8470
8027
8343
8112
8225
8203
8111
8254
8029
8256
8039
8247
8115
8171
8256
8109
8318
8038
8280
8024
8207
8097
8115
8215
8015
8336
7950
8384
7907
8324
7928
8258
8053
8198
8193
8118
8241
8118
8265
8129
8166
8195
8065
8289
7968
8327
7919
8311
7928
8234
8032
8158
8202
8104
8314
8002
8328
7977
8304
8033
8226
8123
8126
8195
8052
8217
8034
8199
8122
8131
8226
8036
8346
7956
8389
7905
8379
7939
8301
8011
8180
8117
8067
8179
7987
8190
7981
8139
8071
8100
8189
8044
8291
7997
8312
8038
8296
8152
8211
8261
8113
8382
8012
8412
7964
8382
7976
8295
8040
8192
8173
8140
8258
8110
8261
8139
8171
8194
8064
8296
7976
8352
7917
8349
7945
8292
8046
8209
8160
8082
8224
7956
8235
7907
8210
7966
8144
8057
8082
8195
8061
8274
8075
8287
8182
8223
8279
8106
8366
7994
8417
7927
8394
7946
8340
8029
8238
8143
8133
8214
8058
8265
8083
8232
8134
8133
8201
7987
8211
7910
8241
7931
8239
8072
8240
8281
8188
8375
8029
8384
7944
8349
7974
8305
8070
8206
8151
8112
8231
8087
8230
8101
8145
8130
7992
8201
7892
8288
7874
8338
7911
8301
8019
8237
8157
8166
8313
8126
8362
8069
8323
8042
8178
8078
8059
8143
7981
8201
7989
8239
8114
8207
8255
8147
8407
8065
8451
7956
8424
7975
8376
8032
8248
8128
8151
8207
8066
8232
8050
8172
8093
8081
8185
7995
8289
7972
8353
7979
8304
8059
8229
8185
8127
8281
8001
8346
7960
8344
7979
8283
8034
8170
8111
8081
8199
8044
8205
8094
8186
8193
8072
8260
7961
8357
7949
8426
7942
8318
7954
8197
8091
8157
8249
8097
8330
8070
8302
8073
8214
8159
8126
8262
8065
8293
8020
8251
8046
8160
8127
8058
8259
7973
8360
7916
8393
7940
8351
8016
8258
8115
8150
8190
8068
8212
8048
8167
8088
8081
8194
8004
8308
7989
8392
7988
8357
8058
8261
8140
8126
8222
7996
8296
7957
8326
7989
8289
8065
8192
8130
8075
8172
8021
8185
8028
8133
8114
8040
8227
7960
8352
7933
8427
7975
8435
8066
8332
8153
8213
8218
8098
8264
8054
8282
8082
8205
8158
8112
8255
8034
8299
8004
8284
8062
8224
8147
8107
8246
7985
8340
7931
8379
7935
8337
7985
8240
8078
8156
8181
8088
8235
8077
8201
8138
8135
8229
8030
8317
7946
8355
7926
8314
7969
8244
8079
8138
8195
8046
8278
7976
8313
8000
8290
8076
8209
8175
8115
8274
8106
8305
8110
8219
8152
8107
8244
7988
8329
7917
8389
7904
8363
7956
8270
8057
8174
8170
8103
8234
8056
8258
8088
8203
8161
8093
8240
8024
8322
7991
8302
8015
8253
8138
8163
8245
8051
8340
7970
8385
7949
8344
7990
8250
8084
8174
8175
8048
8157
8016
8147
8070
8080
8173
7997
8278
7922
8353
7923
8398
8037
8384
8139
8244
8241
8139
8308
8046
8325
8025
8286
8081
8190
8169
8080
8226
8022
8224
7976
8137
8029
8058
8181
7987
8319
7943
8407
7926
8405
7986
8374
8151
8321
8240
8182
8282
8115
8280
8109
8207
8179
8105
8275
8017
8322
7958
8326
7984
8255
8067
8152
8172
8030
8255
7925
8297
7906
8291
7949
8216
8068
8187
8212
8136
8286
8114
8244
8149
8161
8214
8041
8301
7948
8370
7903
8350
7906
8263
7979
8153
8104
8058
8195
7971
8215
7976
8253
8095
8235
8262
8189
8329
8087
8337
8089
8295
8160
8194
8239
8069
8336
7975
8402
7926
8379
7939
8289
8004
8189
8113
8085
8180
8026
8172
8052
8158
8155
8084
8242
7997
8334
7968
8355
7989
8307
8072
8200
8161
8084
8273
8001
8340
7966
8314
7997
8252
8070
8139
8151
8059
8203
8038
8185
8049
8090
8146
8011
8277
7968
8425
7990
8465
7996
8385
8056
8255
8150
8148
8242
8069
8285
8057
8264
8099
8200
8207
8107
8283
8026
8305
8022
8272
8084
8185
8192
8076
8278
7925
8300
7865
8320
7906
8284
7997
8198
8110
8122
8204
8087
8272
8152
8250
8210
8147
8303
8039
8367
7975
8383
7962
8318
8025
8205
8112
8074
8205
7981
8266
7951
8293
8004
8243
8089
8157
8182
8081
8246
8053
8235
8092
8173
8187
8071
8283
7968
8379
7934
8422
7962
8381
8028
8288
8146
8173
8221
8080
8254
8048
8238
8091
8155
8180
8077
8291
8029
8328
7996
8280
8044
8192
8144
8092
8263
7985
8338
7923
8356
7940
8312
8013
8216
8110
8130
8195
8065
8229
8075
8167
8136
8074
8241
7996
8338
7943
8371
7941
8329
8003
8251
8116
8139
8211
8032
8277
7997
8309
8027
8274
8129
8203
8234
8113
8284
8062
8264
8084
8185
8147
8080
8254
7965
8348
7903
8388
7909
8348
7973
8253
8080
8150
8169
8067
8226
8057
8248
8108
8170
8189
8069
8275
7989
8324
7966
8305
8014
8215
8103
8106
8224
8003
8308
7939
8361
7971
8345
8056
8273
8154
8171
8240
8113
8270
8112
8226
8175
8130
8254
8008
8340
7933
8372
7911
8341
7948
8234
8041
8126
8149
8020
8229
7986
8262
8013
8226
8115
8167
8209
8071
8274
8046
8302
8058
8185
8097
8072
8216
7983
8326
7915
8391
7928
8384
8004
8316
8130
8271
8261
8171
8266
8097
8242
8096
8153
8185
8059
8277
7974
8330
7953
8328
7991
8256
8091
8160
8218
8063
8314
8001
8379
8017
8353
8060
8264
8152
8162
8222
8081
8240
8055
8184
8117
8111
8228
8016
8331
7927
8367
7890
8363
7968
8311
8077
8207
8188
8107
8254
8033
8278
8038
8239
8108
8155
8216
8068
8275
8014
8282
8029
8231
8118
8126
8220
8008
8311
7928
8369
7910
8354
7961
8275
8045
8179
8148
8093
8217
8064
8215
8096
8151
8176
8041
8260
7973
8333
7939
8344
7966
8271
8064
8169
8177
8070
8279
7982
8315
7950
8280
7996
8205
8092
8120
8190
8062
8252
8073
8235
8150
8183
8277
8107
8385
7985
8424
7939
8407
7961
8322
8033
8206
8150
8110
8227
8042
8266
8049
8219
8111
8138
8208
8042
8283
7997
8306
8008
8251
8093
8158
8195
8053
8302
7964
8382
7939
8371
7974
8306
8058
8202
8151
8107
8212
8070
8219
8102
8165
8188
8064
8282
7981
8360
7935
8359
7948
8292
8027
8196
8147
8091
8255
8010
8310
7993
8298
8029
8206
8107
8114
8192
8054
8265
8060
8245
8129
8176
8218
8057
8306
7947
8384
7911
8379
7919
8304
7998
8210
8114
8122
8209
8062
8262
8082
8273
8186
8192
8253
8068
8325
8017
8346
8015
8293
8080
8193
8174
8083
8287
7982
8352
7932
8345
7954
8271
8031
8192
8142
8101
8201
8061
8210
8083
8167
8184
8078
8276
7982
8357
7923
8374
7931
8322
8007
8225
8124
8121
8240
8049
8322
8036
8320
8085
8262
8164
8148
8235
8070
8267
8032
8240
8084
8171
8181
8070
8287
7961
8372
7921
8397
7939
8341
7996
8237
8112
8142
8199
8063
8235
8059
8192
8103
8106
8205
8038
8311
7982
8351
7977
8301
8039
8221
8146
8107
8259
7998
8335
7959
8355
7991
8318
8073
8209
8145
8106
8214
8078
8239
8099
8190
8186
8100
8282
7986
8360
7919
8383
7911
8339
7985
8235
8083
8128
8198
8051
8263
8017
8275
8059
8215
8132
8117
8219
8037
8282
8020
8261
8048
8187
8153
8088
8270
7978
8354
7921
8389
7925
8345
8001
8255
8107
8165
8204
8098
8237
8082
8218
8127
8139
8223
8045
8324
7978
8371
7962
8332
8013
8244
8112
8132
8225
8022
8300
7967
8329
7983
8290
8056
8204
8155
8113
8224
8064
8236
8074
8189
8157
8097
8265
8002
8365
7938
8409
7933
8383
7986
8286
8090
8177
8190
8094
8265
8047
8271
8067
8206
8145
8117
8252
8047
8314
8020
8303
8047
8227
8136
8113
8245
8006
8344
7932
8373
7935
8347
7984
8256
8079
8156
8185
8083
8222
8078
8202
8120
8129
8218
8034
8316
7968
8376
7950
8357
7998
8286
8102
8169
8213
8069
8291
7999
8321
8004
8281
8060
8200
8147
8099
8219
8045
8243
8064
8210
8145
8116
8250
7999
8340
7922
8393
7912
8376
7963
8288
8061
8186
8172
8106
8246
8052
8258
8071
8184
8135
8094
8226
8008
8302
7996
8330
8032
8265
8132
8159
8236
8041
8318
7949
8373
7942
8349
7983
8254
8082
8170
8185
8101
8246
8082
8214
8129
8142
8212
8034
8318
7958
8370
7930
8365
7956
8280
8057
8177
8170
8079
8266
8015
8305
8003
8274
8064
8187
8161
8101
8245
8048
8262
8052
8216
8110
8108
8201
7994
8306
7920
8377
7908
8380
7957
8325
8096
8269
8226
8168
8254
8075
8255
8090
8204
8163
8101
8254
8021
8331
7983
8349
8007
8283
8090
8163
8181
8043
8277
7956
8338
7942
8330
7981
8249
8067
8161
8168
8087
8229
8068
8221
8128
8155
8209
8039
8296
7953
8376
7919
8373
7948
8318
8040
8210
8147
8107
8241
8033
8300
8031
8280
8087
8198
8177
8090
8250
8026
8280
8032
8241
8102
8147
8197
8040
8300
7945
8377
7922
8378
7943
8317
8031
8210
8130
8120
8213
8073
8243
8093
8196
8159
8096
8250
8016
8335
7966
8352
7983
8304
8075
8214
8178
8099
8282
8006
8348
7981
8346
8009
8272
8096
8176
8180
8094
8240
8060
8213
8092
8151
8193
8047
8285
7954
8361
7899
8374
7933
8325
8005
8222
8120
8128
8222
8049
8261
8038
8255
8083
8174
8177
8082
8262
8022
8300
8014
8271
8094
8188
8186
8077
8295
7972
8371
7923
8378
7949
8326
8016
8222
8132
8136
8202
8082
8240
8088
8185
8160
8091
8253
8014
8348
7963
8378
7969
8324
8044
8223
8135
8112
8240
8013
8304
7985
8321
8014
8269
8090
8170
8179
8082
8244
8050
8236
8099
8175
8182
8081
8289
7973
8380
7924
8402
7932
8355
8002
8254
8112
8159
8210
8072
8262
8054
8250
8102
8190
8192
8088
8272
8010
8307
7994
8283
8055
8200
8147
8091
8261
7985
8348
7936
8375
7948
8327
8020
8234
8125
8142
8200
8076
8235
8081
8186
8150
8104
8252
8012
8339
7944
8370
7941
8356
8013
8266
8128
8158
8231
8060
8290
8001
8309
8033
8268
8099
8172
8188
8083
8254
8043
8249
8066
8199
8157
8090
8264
7977
8348
7904
8387
7911
8351
7973
8267
8084
8164
8180
8080
8234
8059
8238
8096
8173
8195
8079
8284
8005
8341
7992
8314
8031
8245
8126
8133
8245
8024
8330
7963
8363
7965
8341
8025
8240
8114
8153
8200
8092
8246
8081
8207
8153
8118
8241
8016
8337
7940
8380
7924
8362
7973
8273
8074
8164
8179
8068
8259
8015
8300
8034
8246
8090
8154
8185
8067
8268
8029
8265
8057
8220
8136
8120
8250
8011
8347
7935
8394
7931
8383
7972
8285
8076
8186
8166
8099
8227
8064
8236
8102
8165
8181
8065
8281
7980
8337
7960
8327
7992
8259
8091
8145
8195
8035
8284
7972
8344
7970
8327
8029
8244
8119
8155
8208
8082
8248
8076
8217
8140
8134
8242
8026
8336
7944
8394
7920
8388
7962
8308
8057
8199
8164
8104
8251
8046
8287
8050
8243
8103
8144
8195
8058
8275
8012
8281
8030
8238
8112
8139
8214
8017
8318
7937
8367
7905
8361
7965
8288
8054
8190
8153
8099
8211
8070
8221
8105
8170
8185
8063
8289
7980
8352
7950
8364
7977
8295
8071
8195
8185
8088
8273
8013
8338
7993
8325
8036
8241
8123
8152
8205
8073
8255
8061
8215
8117
8134
8207
8019
8296
7923
8367
7893
8373
7927
8302
8024
8206
8131
8115
8233
8070
8281
8071
8251
8132
8165
8220
8065
8288
8007
8321
8002
8259
8088
8176
8192
8068
8301
7978
8387
7945
8377
7972
8304
8048
8203
8154
8136
8216
8085
8223
8102
8171
8176
8062
8276
7976
8353
7932
8371
7953
8313
8038
8214
8154
8107
8251
8018
8306
7988
8286
8024
8210
8106
8124
8208
8064
8270
8047
8238
8101
8164
8197
8060
8302
7965
8381
7914
8396
7934
8343
8019
8244
8130
8149
8216
8080
8268
8074
8225
8127
8145
8209
8052
8300
7986
8334
7992
8281
8058
8195
8158
8081
8270
7981
8345
7936
8357
7966
8306
8045
8203
8151
8119
8210
8066
8220
8091
8176
8186
8078
8274
7986
8362
7937
8397
7940
8337
8015
8247
8128
8139
8226
8037
8279
8017
8284
8052
8221
8131
8128
8221
8067
8275
8032
8261
8082
8183
8177
8075
8278
7970
8369
7922
8395
7927
8346
8001
8249
8107
8154
8202
8076
8235
8069
8208
8115
8140
8214
8036
8315
7976
8345
7984
8322
8053
8247
8158
8130
8253
7998
8314
7947
8324
7958
8283
8034
8198
8146
8109
8225
8076
8233
8084
8178
8172
8096
8269
7988
8358
7921
8383
7923
8360
7984
8262
8095
8153
8207
8062
8274
8032
8284
8061
8221
8139
8119
8233
8050
8291
8024
8273
8056
8213
8155
8104
8265
7996
8364
7932
8390
7934
8354
7999
8258
8100
8165
8182
8087
8217
8066
8200
8120
8138
8217
8038
8309
7969
8356
7949
8327
7997
8243
8099
8131
8212
8038
8301
7977
8331
7985
8292
8044
8203
8147
8113
8219
8061
8241
8073
8205
8164
8108
8262
8001
8361
7939
8410
7927
8376
7978
8283
8083
8181
8184
8096
8258
8053
8278
8072
8219
8142
8113
8228
8033
8302
8004
8286
8026
8223
8118
8117
8225
7998
8320
7931
8367
7930
8345
7980
8262
8083
8175
8183
8089
8225
8082
8216
8133
8147
8234
8050
8322
7972
8375
7947
8370
7999
8298
8108
8190
8210
8078
8292
8007
8325
7996
8285
8061
8202
8157
8110
8223
8058
8253
8059
8205
8137
8113
8225
8003
8333
7924
8382
7903
8369
7951
8287
8050
8180
8157
8095
8224
8053
8256
8071
8198
8154
8114
8246
8032
8315
7994
8321
8011
8260
8101
8152
8213
8045
8309
7962
8372
7952
8362
8003
8277
8085
8181
8173
8091
8217
8070
8204
8114
8142
8198
8035
8308
7947
8369
7926
8367
7956
8296
8051
8186
8163
8083
8251
8017
8304
8008
8274
8066
8191
8162
8100
8248
8052
8287
8060
8240
8126
8143
8226
8035
8325
7944
8390
7910
8390
7958
8336
8050
8224
8153
8123
8224
8074
8251
8092
8200
8159
8098
8244
8020
8324
7970
8329
7986
8268
8067
8163
8179
8061
8280
7965
8349
7948
8339
7996
8270
8086
8186
8180
8103
8239
8084
8229
8129
8158
8209
8050
8319
7966
8385
7921
8393
7949
8322
8043
8225
8151
8116
8244
8042
8293
8037
8273
8078
8185
8164
8092
8248
8034
8282
8026
8240
8096
8155
8189
8047
8301
7946
8370
7916
8386
7953
8329
8031
8216
8125
8128
8211
8067
8237
8083
8195
8162
8098
8249
8012
8330
7960
8358
7975
8300
8054
8213
8168
8099
8259
8003
8343
7979
8343
8005
8282
8082
8172
8173
8087
8240
8065
8226
8104
8157
8185
8045
8281
7951
8362
7901
8380
7918
8327
7999
8240
8117
8135
8214
8057
8266
8045
8260
8079
8175
8178
8096
8267
8029
8305
8015
8270
8075
8188
8178
8077
8284
7984
8375
7938
8387
7957
8339
8031
8250
8137
8151
8210
8086
8245
8091
8198
8162
8093
8241
7986
8328
7937
8358
7950
8318
8013
8230
8127
8115
8236
8023
8301
7985
8325
8007
8266
8091
8175
8183
8088
8251
8061
8234
8101
8180
8181
8089
8288
7982
8378
7924
8404
7936
8364
8000
8258
8101
8160
8207
8069
8255
8056
8251
8093
8175
8178
8080
8268
8004
8313
7986
8284
8051
8201
8141
8084
8251
7984
8343
7933
8369
7950
8326
8022
8233
8116
8145
8192
8082
8233
8079
8195
8157
8115
8245
8010
8338
7946
8379
7943
8353
8004
8261
8116
8156
8225
8064
8294
8008
8312
8027
8263
8093
8173
8191
8082
8257
8045
8249
8066
8189
8156
8093
8257
7979
8353
7920
8387
7912
8366
7976
8274
8084
8174
8187
8093
8242
8056
8237
8096
8170
8183
8065
8284
8008
8329
7973
8309
8017
8240
8130
8139
8241
8020
8327
7967
8366
7961
8327
8016
8235
8111
8166
8213
8103
8256
8088
8205
8147
8119
8237
8010
8345
7938
8385
7923
8367
7969
8279
8081
8176
8195
8083
8260
8012
8285
8030
8254
8102
8165
8190
8062
8256
8014
8257
8044
8220
8142
8131
8252
8012
8363
7943
8399
7930
8371
7971
8281
8060
8187
8165
8093
8222
8071
8234
8103
8163
8191
8066
8277
7987
8335
7952
8326
7988
8259
8089
8158
8201
8055
8304
7986
8354
7972
8322
8025
8234
8108
8149
8191
8070
8240
8065
8207
8136
8123
8236
8024
8329
7949
8391
7918
8381
7964
8305
8065
8197
8170
8103
8242
8038
8292
8045
8242
8108
8136
8202
8064
8278
8020
8280
8023
8232
8111
8137
8220
8023
8325
7948
8388
7924
8380
7969
8298
8058
8201
8168
8111
8219
8083
8231
8103
8165
8186
8064
8289
7991
8360
7952
8359
7977
8292
8077
8196
8189
8078
8279
8002
8338
7992
8314
8034
8234
8115
8135
8203
8068
8246
8060
8211
8117
8136
8216
8026
8309
7933
8380
7910
8384
7938
8312
8033
8213
8144
8115
8232
8050
8265
8051
8225
8113
8140
8215
8060
8293
8009
8310
8009
8264
8100
8175
8196
8055
8296
7963
8380
7943
8387
7988
8321
8060
8198
8144
8103
8205
8063
8215
8092
8162
8175
8050
8255
7960
8338
7919
8350
7942
8302
8033
8210
8156
8105
8254
8009
8312
7999
8300
8040
8241
8132
8131
8216
8078
8269
8054
8249
8119
8179
8220
8074
8315
7968
8390
7932
8408
7952
8355
8034
8249
8142
8145
8221
8074
8263
8074
8223
8117
8126
8210
8039
8292
7979
8322
7985
8276
8057
8188
8162
8072
8273
7984
8348
7938
8360
7970
8298
8044
8208
8154
8111
8214
8077
8222
8091
8169
8177
8070
8277
7986
8358
7927
8383
7942
8334
8019
8238
8131
8135
8236
8040
8288
8004
8287
8047
8218
8127
8123
8215
8054
8266
8029
8244
8086
8167
8177
8067
8284
7963
8371
7910
8388
7931
8344
8013
8260
8122
8157
8201
8074
8233
8066
8207
8119
8120
8204
8019
8290
7968
8333
7979
8307
8049
8218
8151
8103
8263
8008
8346
7969
8367
7997
8311
8067
8207
8161
8127
8229
8084
8242
8101
8188
8184
8089
8273
7982
8358
7925
8388
7927
8354
7995
8248
8110
8150
8219
8057
8273
8026
8283
8063
8207
8135
8118
8228
8046
8282
8020
8261
8077
8196
8166
8095
8280
7984
8376
7931
8397
7942
8350
8006
8265
8110
8159
8190
8074
8224
8070
8207
8123
8129
8223
8033
8310
7960
8346
7954
8319
8010
8230
8114
8119
8218
8008
8300
7962
8333
7987
8288
8053
8196
8149
8111
8239
8064
8237
8085
8192
8166
8099
8263
8000
8360
7931
8405
7930
8368
7983
8274
8086
8159
8180
8063
8248
8028
8265
8066
8205
8140
8114
8233
8031
8292
8003
8271
8043
8221
8149
8120
8265
8015
8359
7945
8388
7941
8354
7999
8260
8104
8166
8185
8093
8242
8079
8211
8144
8142
8233
8044
8329
7970
8373
7957
8360
8002
8278
8106
8164
8219
8061
8305
8001
8334
8004
8287
8058
8196
8158
8102
8234
8053
8239
8058
8190
8141
8096
8239
7993
8345
7929
8389
7906
8363
7965
8289
8071
8179
8172
8075
8234
8056
8266
8084
8203
8163
8105
8239
8010
8304
7990
8303
8022
8241
8123
8144
8235
8036
8336
7965
8380
7946
8348
7991
8255
8083
8164
8173
8089
8234
8071
8197
8124
8122
8210
8024
8314
7949
8373
7929
8367
7973
8289
8078
8178
8193
8079
8267
8001
8312
8016
8282
8074
8191
8169
8105
8251
8055
