EMG
7938
8055
7994
7990
8065
7921
8136
7888
8157
7886
8140
7922
8101
7994
8051
8050
7998
8075
7992
8058
8015
8011
8074
7961
8131
7911
8167
7901
8169
7928
8124
7976
8039
8048
7977
8123
7943
8127
7945
8105
7966
8050
8011
7983
8053
7951
8066
7965
8043
8004
7989
8067
7913
8137
7874
8174
7877
8183
7911
8139
7975
8071
8043
8016
8088
7986
8096
8001
8070
8053
8019
8111
7968
8144
7937
8149
7958
8121
8010
8046
8089
7964
8141
7923
8176
7907
8155
7943
8111
7990
8049
8036
7991
8061
7975
8044
7991
8003
8048
7938
8115
7899
8158
7876
8161
7896
8130
7963
8061
8046
8000
8115
7962
8133
7974
8116
8001
8075
8054
8015
8107
7986
8112
7980
8082
8009
8024
8075
7960
8145
7898
8181
7885
8173
7900
8136
7951
8067
8022
8007
8057
7972
8065
7976
8035
8015
7969
8057
7909
8104
7892
8113
7901
8104
7961
8035
8037
7971
8113
7924
8156
7919
8158
7951
8125
8011
8076
8065
8021
8089
7996
8084
8025
8042
8074
7979
8147
7927
8192
7895
8199
7908
8166
7958
8098
8021
8018
8073
7965
8096
7951
8086
7976
8035
8025
7978
8060
7926
8086
7930
8066
7972
8024
8036
7963
8117
7899
8168
7878
8181
7906
8162
7966
8099
8029
8051
8079
8010
8096
8012
8073
8058
8019
8107
7956
8161
7931
8185
7939
8162
7973
8102
8046
8010
8107
7942
8141
7919
8136
7940
8099
7977
8026
8016
7975
8054
7951
8048
7975
8017
8033
7964
8101
7895
8147
7870
8172
7879
8160
7937
8115
8011
8044
8080
7997
8113
7992
8103
8005
8073
8069
8010
8115
7972
8139
7963
8138
7992
8088
8050
8005
8142
7942
8180
7904
8174
7907
8147
7956
8090
8017
8037
8057
7992
8067
7988
8034
8015
7980
8066
7917
8124
7892
8155
7891
8141
7927
8094
8002
8027
8094
7984
8151
7960
8156
7977
8128
8023
8077
8076
8026
8108
7999
8114
8023
8075
8068
8012
8133
7940
8183
7898
8206
7898
8180
7938
8129
7993
8048
8046
7988
8082
7980
8085
7998
8042
8041
7968
8081
7919
8111
7899
8100
7941
8063
8005
8003
8091
7947
8159
7914
8185
7928
8165
7970
8118
8032
8063
8084
8026
8102
8026
8083
8053
8032
8106
7966
8175
7926
8203
7912
8187
7942
8137
8000
8058
8066
7998
8127
7960
8125
7961
8096
7991
8032
8038
7975
8073
7949
8079
7958
8050
8012
7998
8099
7934
8164
7894
8194
7890
8191
7935
8147
8004
8086
8069
8041
8110
8022
8113
8033
8071
8078
8014
8144
7974
8172
7952
8177
7966
8128
8018
8053
8094
7967
8142
7932
8172
7922
8140
7943
8081
7992
8026
8048
7993
8074
7978
8055
8023
8014
8082
7947
8131
7891
8173
7884
8172
7909
8136
7978
8067
8056
8025
8125
7991
8138
7999
8115
8034
8062
8083
8013
8134
7978
8137
7992
8118
8035
8048
8110
7975
8180
7923
8201
7899
8197
7926
8144
7983
8075
8041
8019
8080
7989
8073
8001
8032
8047
7978
8102
7925
8143
7907
8159
7926
8126
7990
8074
8062
8002
8139
7953
8171
7946
8157
7987
8128
8035
8059
8084
8020
8104
8010
8094
8035
8047
8093
7982
8172
7929
8208
7901
8206
7920
8170
7978
8102
8028
8027
8090
7982
8107
7985
8084
8014
8040
8061
7983
8109
7947
8123
7952
8099
7998
8042
8058
7978
8141
7920
8192
7913
8187
7935
8147
7997
8099
8045
8046
8092
8019
8101
8029
8065
8074
8009
8134
7951
8177
7927
8200
7934
8173
7985
8100
8049
8030
8124
7965
8149
7949
8134
7974
8092
8016
8044
8075
7995
8099
7981
8085
8004
8043
8064
7971
8139
7912
8187
7886
8203
7906
8175
7967
8121
8030
8057
8094
8014
8119
8012
8107
8042
8064
8098
8003
8140
7963
8172
7960
8147
7998
8088
8054
8001
8133
7948
8181
7914
8183
7935
8150
7982
8098
8043
8033
8068
8000
8085
8008
8049
8050
7997
8121
7940
8162
7908
8199
7911
8173
7953
8112
8025
8045
8110
7995
8154
7975
8144
7987
8105
8040
8049
8087
8003
8120
7989
8119
8018
8074
8070
8013
8147
7945
8199
7910
8226
7912
8189
7949
8129
8014
8052
8074
8013
8100
8002
8083
8025
8044
8086
7985
8127
7939
8156
7942
8155
7976
8108
8040
8027
8123
7966
8174
7936
8183
7947
8148
7987
8096
8042
8048
8097
8024
8098
8020
8075
8068
8025
8139
7960
8188
7913
8213
7915
8191
7959
8144
8017
8064
8082
8001
8119
7973
8128
7994
8090
8036
8035
8083
7990
8125
7973
8120
8000
8084
8052
8018
8129
7958
8189
7917
8207
7916
8203
7954
8147
8013
8068
8066
8029
8098
8009
8094
8042
8049
8098
8006
8142
7938
8186
7928
8172
7963
8139
8024
8054
8113
7997
8166
7948
8170
7948
8145
7986
8090
8043
8038
8080
8006
8103
8009
8077
8051
8028
8120
7959
8176
7914
8222
7905
8200
7942
8157
8008
8099
8070
8028
8118
7997
8130
8015
8107
8058
8055
8101
7996
8139
7963
8148
7993
8115
8038
8051
8125
7980
8176
7928
8210
7925
8203
7955
8154
8011
8082
8070
8034
8103
8025
8100
8042
8047
8095
7994
8148
7945
8191
7927
8187
7946
8149
8007
8087
8087
8016
8148
7971
8168
7962
8137
7991
8093
8050
8050
8105
8011
8119
8013
8101
8054
8054
8127
7989
8192
7934
8219
7915
8215
7939
8169
7986
8108
8055
8041
8107
8008
8122
8009
8086
8050
8041
8102
7992
8148
7960
8174
7975
8142
8019
8063
8094
7995
8163
7940
8197
7931
8187
7952
8137
7997
8079
8059
8034
8102
8023
8098
8039
8062
8096
8002
8161
7944
8205
7932
8213
7940
8171
7990
8105
8053
8021
8129
7983
8161
7976
8141
8000
8096
8056
8043
8111
8006
8133
7997
8112
8031
8057
8100
7990
8170
7932
8214
7911
8214
7924
8182
7981
8121
8043
8049
8092
8019
8115
8020
8090
8062
8045
8110
7986
8160
7957
8190
7966
8163
8004
8102
8085
8026
8151
7970
8193
7939
8184
7965
8146
8012
8092
8067
8046
8110
8024
8105
8034
8068
8088
8012
8153
7948
8201
7923
8218
7931
8193
7980
8135
8049
8051
8114
7999
8138
7978
8120
7992
8082
8056
8036
8116
7998
8142
7996
8144
8033
8102
8102
8026
8161
7952
8201
7916
8209
7928
8188
7973
8120
8029
8060
8086
8024
8118
8030
8093
8059
8045
8116
7988
8167
7946
8193
7949
8173
7988
8128
8047
8041
8120
7981
8176
7960
8186
7962
8148
8018
8098
8071
8046
8108
8020
8114
8031
8080
8077
8020
8147
7962
8203
7924
8236
7927
8210
7960
8156
8032
8082
8098
8031
8129
7999
8131
8024
8091
8071
8036
8108
7981
8137
7969
8151
8001
8110
8058
8035
8141
7972
8197
7938
8220
7934
8195
7974
8146
8035
8077
8084
8032
8109
8027
8093
8064
8051
8122
7990
8184
7954
8218
7945
8206
7977
8154
8030
8082
8110
8008
8159
7970
8175
7984
8144
8023
8103
8079
8048
8119
8018
8128
8028
8100
8067
8038
8134
7966
8193
7918
8236
7917
8211
7949
8165
8011
8088
8070
8035
8110
8014
8127
8032
8098
8076
8040
8127
7983
8158
7960
8165
7982
8136
8054
8076
8128
7990
8186
7952
8214
7946
8198
7978
8141
8030
8083
8075
8038
8115
8026
8096
8059
8056
8123
7998
8183
7945
8221
7925
8215
7956
8174
8015
8105
8092
8029
8148
7989
8166
7981
8129
8010
8082
8068
8034
8114
7997
8133
8010
8123
8056
8060
8133
7989
8195
7940
8231
7925
8227
7952
8182
8005
8124
8075
8060
8117
8029
8122
8034
8091
8079
8042
8138
7981
8174
7962
8193
7979
8160
8028
8107
8118
8021
8171
7960
8199
7956
8193
7975
8130
8018
8078
8072
8039
8114
8029
8110
8059
8064
8110
8002
8176
7953
8220
7928
8226
7942
8187
8000
8125
8070
8051
8137
8010
8166
8002
8142
8035
8094
8090
8041
8129
7999
8149
8002
8139
8039
8072
8113
8006
8174
7942
8221
7927
8234
7952
8187
7998
8131
8054
8052
8096
8025
8113
8039
8085
8080
8042
8145
7987
8185
7954
8199
7956
8175
8013
8122
8092
8048
8166
7992
8196
7962
8179
7977
8138
8027
8079
8086
8046
8120
8018
8119
8046
8074
8100
8015
8175
7956
8217
7921
8228
7926
8190
7973
8133
8041
8059
8104
8012
8128
8006
8125
8040
8085
8090
8033
8138
7998
8179
7996
8164
8029
8106
8093
8029
8165
7970
8221
7940
8237
7950
8196
7999
8127
8053
8070
8105
8043
8120
8050
8107
8091
8047
8155
7988
8199
7949
8218
7939
8185
7982
8132
8058
8065
8136
8001
8172
7967
8168
7984
8128
8028
8076
8080
8034
8127
8018
8128
8042
8096
8092
8027
8166
7967
8217
7934
8255
7940
8219
7980
8155
8031
8079
8100
8030
8125
8019
8121
8040
8076
8087
8027
8145
7987
8186
7980
8181
8012
8137
8091
8052
8152
7979
8198
7946
8213
7939
8177
7984
8133
8051
8076
8101
8044
8120
8051
8104
8075
8047
8145
7989
8198
7942
8235
7938
8209
7972
8169
8044
8094
8121
8025
8164
7993
8171
8006
8137
8050
8090
8101
8044
8140
8014
8155
8028
8119
8081
8049
8153
7982
8208
7939
8248
7929
8215
7960
8171
8019
8091
8084
8043
8122
8026
8119
8049
8087
8105
8036
8159
7990
8204
7970
8194
7999
8157
8055
8088
8135
8012
8200
7973
8216
7973
8205
8000
8136
8048
8071
8090
8026
8116
8035
8107
8076
8054
8137
7995
8194
7950
8238
7932
8227
7955
8179
8021
8112
8094
8040
8144
8003
8152
8010
8130
8050
8086
8106
8036
8147
7997
8170
8020
8141
8063
8071
8141
7999
8203
7951
8237
7938
8222
7959
8183
8021
8109
8082
8058
8125
8042
8126
8066
8097
8108
8040
8157
7972
8189
7953
8204
7967
8163
8022
8093
8101
8024
8172
7975
8198
7964
8171
7995
8132
8052
8077
8106
8037
8125
8032
8116
8061
8069
8132
8004
8195
7951
8248
7932
8256
7956
8192
8008
8122
8070
8062
8138
8023
8153
8023
8132
8066
8084
8119
8032
8160
8004
8183
8001
8154
8040
8088
8118
8012
8188
7965
8225
7935
8231
7958
8184
8016
8118
8077
8063
8114
8043
8123
8061
8098
8106
8037
8167
7982
8215
7945
8220
7963
8185
8019
8126
8088
8049
8159
8002
8192
7981
8177
8012
8132
8064
8087
8115
8039
8135
8030
8125
8055
8085
8123
8020
8194
7961
8235
7934
8251
7942
8205
7999
8142
8061
8078
8118
8028
8137
8020
8110
8054
8068
8115
8024
8166
7987
8193
7992
8167
8027
8115
8107
8035
8178
7970
8215
7960
8232
7969
8186
8013
8123
8076
8075
8121
8044
8117
8053
8098
8101
8027
8167
7975
8217
7949
8234
7958
8203
7993
8136
8063
8067
8147
8020
8184
8002
8174
8018
8126
8062
8073
8112
8024
8140
8015
8145
8045
8107
8115
8031
8177
7970
8232
7938
8252
7947
8215
7990
8157
8050
8087
8102
8048
8138
8037
8121
8073
8081
8132
8031
8177
7977
8196
7975
8191
8013
8135
8091
8050
8147
7982
8191
7951
8211
7967
8190
8017
8125
8072
8067
8114
8041
8120
8053
8096
8091
8049
8166
7986
8215
7947
8257
7950
8222
7982
8166
8043
8093
8125
8034
8164
8011
8165
8027
8133
8074
8078
8129
8031
8164
8008
8166
8032
8126
8094
8044
8167
7985
8217
7948
8251
7941
8218
7982
8166
8045
8098
8103
8056
8128
8049
8123
8073
8079
8127
8026
8190
7981
8223
7973
8211
7994
8157
8055
8088
8134
8015
8190
7980
8216
7981
8172
8019
8128
8081
8077
8124
8048
8143
8047
8111
8087
8062
8161
7989
8217
7951
8246
7943
8239
7967
8183
8032
8118
8104
8048
8149
8019
8150
8030
8123
8076
8072
8130
8020
8161
7997
8183
8021
8145
8072
8087
8162
8003
8208
7954
8235
7945
8224
7985
8176
8041
8113
8098
8063
8129
8048
8116
8068
8074
8123
8019
8187
7973
8235
7955
8218
7975
8180
8037
8113
8114
8034
8173
7984
8197
7989
8175
8024
8127
8076
8063
8122
8035
8151
8038
8130
8075
8064
8152
8015
8217
7960
8261
7941
8243
7963
8198
8023
8136
8091
8075
8150
8039
8151
8038
8125
8079
8073
8138
8020
8177
7984
8189
7996
8153
8040
8091
8123
8009
8191
7964
8223
7949
8225
7978
8172
8034
8112
8091
8058
8130
8048
8128
8069
8084
8123
8030
8196
7974
8241
7956
8241
7973
8196
8024
8137
8103
8057
8160
8016
8187
8006
8173
8036
8122
8091
8074
8135
8032
8155
8030
8147
8061
8086
8140
8016
8204
7963
8240
7937
8255
7961
8202
8005
8145
8072
8069
8122
8045
8143
8042
8120
8084
8069
8147
8020
8187
7987
8212
7993
8184
8047
8126
8118
8046
8178
7980
8220
7962
8222
7981
8179
8039
8111
8098
8069
8136
8055
8134
8071
8091
8112
8029
8185
7975
8246
7955
8257
7952
8207
8011
8154
8066
8066
8130
8016
8170
8015
8157
8042
8123
8088
8054
8134
8022
8157
8008
8158
8048
8101
8119
8033
8194
7979
8240
7948
8256
7956
8219
8010
8156
8074
8091
8122
8056
8139
8056
8121
8088
8067
8152
8020
8199
7973
8219
7969
8193
8012
8137
8091
8058
8158
7997
8201
7970
8208
7995
8183
8041
8127
8108
8073
8137
8044
8138
8055
8096
8124
8040
8186
7981
8237
7948
8262
7954
8230
7999
8173
8069
8106
8137
8042
8171
8025
8158
8054
8121
8097
8061
8149
8020
8183
8006
8175
8034
8124
8108
8051
8179
7990
8236
7957
8252
7955
8205
7992
8148
8055
8091
8115
8055
8140
8057
8114
8087
8058
8140
8014
8214
7974
8246
7971
8221
8008
8162
8080
8088
8144
8026
8201
7991
8209
8004
8170
8047
8112
8100
8067
8144
8045
8149
8057
8113
8101
8053
8177
7986
8227
7952
8258
7943
8234
7980
8181
8047
8107
8116
8055
8162
8031
8143
8048
8109
8103
8062
8163
8021
8205
7998
8202
8038
8155
8091
8078
8164
7996
8213
7962
8250
7972
8219
8001
8168
8062
8112
8119
8064
8141
8067
8131
8096
8078
8158
8014
8207
7967
8243
7953
8225
7981
8172
8041
8098
8119
8031
8177
8000
8187
8011
8164
8053
8112
8097
8052
8139
8033
8169
8045
8138
8104
8072
8173
8004
8231
7956
8271
7947
8246
7986
8198
8041
8128
8101
8070
8146
8053
8149
8062
8110
8113
8057
8162
8002
8209
7982
8203
8004
8167
8064
8105
8145
8025
8206
7978
8239
7973
8219
8012
8170
8059
8097
8102
8059
8135
8043
8118
8079
8075
8150
8019
8213
7969
8255
7958
8243
7976
8200
8039
8129
8114
8059
8171
8022
8189
8021
8161
8057
8110
8108
8056
8147
8024
8174
8026
8148
8078
8093
8150
8016
8208
7962
8260
7947
8251
7967
8202
8029
8143
8094
8083
8133
8049
8135
8067
8112
8118
8060
8181
8011
8229
7981
8219
7995
8186
8044
8118
8124
8044
8188
7992
8219
7976
8207
8008
8171
8070
8107
8119
8065
8146
8044
8129
8079
8086
8143
8027
8204
7970
8260
7951
8261
7962
8206
8010
8145
8076
8065
8143
8026
8175
8033
8155
8070
8103
8116
8048
8158
8011
8186
8010
8165
8060
8116
8132
8032
8205
7978
8251
7959
8252
7977
8207
8020
8147
8084
8086
8131
8056
8147
8061
8116
8113
8058
8177
8004
8221
7964
8233
7979
8202
8028
8150
8109
8066
8174
8012
8205
7990
8207
8016
8161
8061
8097
8114
8052
8147
8046
8155
8081
8103
8145
8043
8203
7976
8247
7945
8268
7961
8225
8007
8170
8081
8091
8142
8048
8175
8047
8143
8065
8100
8119
8049
8162
8004
8198
8004
8189
8045
8132
8123
8057
8186
7998
8235
7958
8250
7970
8207
8023
8158
8089
8094
8124
8057
8147
8066
8115
8113
8058
8176
7997
8227
7969
8254
7972
8228
8017
8170
8088
8092
8153
8028
8190
8011
8203
8032
8161
8080
8110
8122
8058
8157
8032
8154
8051
8120
8120
8049
8190
7986
8239
7948
8268
7956
8229
7992
8175
8060
8101
8128
8053
8144
8043
8145
8079
8107
8129
8046
8195
8005
8216
7997
8205
8031
8157
8097
8090
8164
8012
8226
7981
8248
7977
8224
8024
8160
8084
8098
8126
8061
8139
8062
8121
8092
8063
8174
8009
8227
7963
8260
7957
8232
7995
8185
8055
8112
8136
8049
8180
8023
8191
8038
8157
8080
8099
8127
8050
8169
8025
8176
8042
8138
8108
8067
8177
8007
8228
7958
8270
7954
8237
7995
8194
8060
8137
8106
8076
8148
8053
8133
8076
8105
8133
8045
8196
8003
8245
7988
8214
8001
8167
8052
8093
8134
8026
8200
7988
8220
7981
8206
8022
8150
8082
8102
8129
8060
8144
8063
8144
8108
8088
8172
8019
8222
7972
8266
7958
8251
7986
8201
8039
8140
8119
8075
8170
8030
8184
8044
8148
8088
8106
8140
8054
8181
8011
8185
8027
8154
8072
8094
8152
8018
8216
7965
8254
7961
8255
7987
8195
8042
8143
8108
8076
8144
8057
8141
8075
8102
8128
8043
8193
7991
8244
7976
8230
7988
8197
8048
8138
8130
8061
8188
8010
8215
8002
8195
8035
8148
8076
8094
8127
8053
8149
8047
8142
8084
8087
8149
8020
8213
7970
8261
7947
8265
7975
8214
8021
8149
8104
8088
8157
8053
8181
8054
8143
8085
8091
8133
8028
8173
8004
8203
8012
8184
8067
8124
8140
8043
8210
7989
8245
7964
8253
7993
8202
8043
8143
8097
8078
8131
8057
8134
8078
8099
8120
8048
8191
7991
8242
7965
8243
7978
8211
8024
8146
8107
8070
8168
8027
8206
8014
8188
8033
8150
8085
8097
8139
8055
8172
8042
8161
8080
8116
8141
8028
8207
7977
8259
7953
8277
7976
8243
8026
8179
8090
8105
8146
8056
8155
8058
8144
8092
8095
8147
8031
8188
7995
8213
7995
8197
8053
8151
8131
8063
8189
8006
8232
7967
8238
7985
8193
8037
8130
8098
8087
8136
8062
8146
8076
8114
8121
8054
8191
7993
8252
7961
8266
7973
8242
8018
8174
8093
8101
8160
8047
8194
8026
8181
8044
8143
8093
8089
8148
8051
8186
8029
8167
8057
8122
8119
8048
8195
7992
8242
7957
8261
7960
8225
8005
8177
8073
8104
8127
8063
8149
8065
8133
8089
8089
8148
8034
8211
7990
8231
7992
8209
8026
8163
8102
8095
8174
8028
8223
7996
8254
8009
8209
8054
8144
8098
8079
8129
8053
8147
8065
8117
8112
8060
8179
7994
8229
7950
8266
7960
8240
7992
8180
8064
8113
8134
8050
8173
8035
8175
8058
8145
8105
8087
8149
8043
8178
8020
8185
8048
8142
8107
8069
8187
8009
8233
7961
8263
7965
8256
8010
8190
8069
8118
8119
8071
8141
8064
8136
8096
8099
8168
8043
8212
7990
8248
7982
8239
8013
8179
8076
8109
8147
8036
8195
7991
8217
8006
8195
8047
8143
8109
8091
8155
8064
8157
8060
8129
8101
8072
8182
8015
8240
7972
8274
7954
8251
7985
8200
8046
8133
8122
8067
8164
8046
8174
8066
8138
8103
8084
8158
8032
8202
8015
8208
8033
8168
8096
8098
8160
8024
8220
7975
8257
7972
8244
8007
8193
8067
8123
8114
8078
8154
8069
8137
8093
8096
8161
8047
8222
7998
8263
7976
8249
8008
8213
8063
8139
8135
8058
8189
8019
8207
8015
8186
8049
8131
8093
8078
8141
8045
8171
8056
8152
8095
8091
8165
8017
8220
7965
8273
7950
8257
7972
8199
8034
8143
8099
8083
8154
8050
8156
8067
8132
8112
8083
8164
8024
8213
8004
8221
8017
8183
8068
8117
8150
8039
8204
7987
8240
7983
8246
8008
8190
8062
8123
8120
8081
8153
8070
8145
8095
8103
8149
8040
8211
7988
8256
7962
8252
7987
8217
8031
8150
8119
8079
8179
8036
8204
8027
8182
8059
8133
8104
8073
8150
8038
8183
8040
8165
8087
8115
8150
8033
8215
7975
8266
7962
8272
7983
8227
8040
8170
8104
8092
8136
8056
8150
8067
8124
8114
8075
8175
8023
8223
7991
8229
8004
8203
8053
8138
8121
8059
8189
8006
8228
7990
8234
8011
8186
8066
8131
8118
8084
8154
8071
8154
8088
8110
8152
8046
8216
7990
8266
7961
8269
7973
8222
8014
8166
8094
8102
8161
8040
8190
8047
8170
8066
8124
8113
8071
8160
8035
8196
8029
8177
8060
8127
8136
8049
8193
7990
8257
7961
8268
7974
8224
8020
8161
8086
8097
8135
8062
8145
8066
8124
8108
8076
8180
8020
8233
7980
8245
7991
8218
8033
8165
8113
8093
8180
8023
8218
8004
8222
8024
8193
8074
8133
8121
8077
8156
8058
8151
8067
8108
8123
8047
8194
7988
8245
7960
8277
7968
8240
8006
8180
8079
8116
8146
8060
8175
8048
8159
8069
8122
8124
8079
8175
8023
8211
8020
8202
8057
8150
8122
8067
8184
8003
8237
7969
8268
7986
8235
8024
8176
8086
8110
8132
8078
8149
8077
8135
8114
8080
8172
8017
8227
7977
8258
7965
8222
8007
8171
8085
8105
8159
8045
8210
8017
8214
8021
8177
8065
8123
8133
8078
8166
8057
8172
8072
8140
8121
8074
8194
8006
8251
7971
8278
7963
8253
8004
8198
8068
8137
8139
8076
8170
8060
8155
8076
8122
8119
8064
8173
8013
8215
8006
8206
8035
8165
8102
8091
8165
8018
8222
7982
8254
7986
8226
8015
8178
8086
8120
8139
8082
8152
8069
8134
8108
8083
8174
8019
8232
7978
8275
7983
8256
8001
8197
8070
8133
8146
8055
8191
8023
8203
8030
8164
8075
8115
8131
8063
8166
8038
8181
8049
8145
8104
8072
8168
8011
8233
7975
8275
7953
8259
7997
8199
8049
8141
8110
8075
8163
8062
8155
8087
8123
8135
8064
8198
8015
8235
7999
8234
8021
8184
8088
8128
8158
8046
8226
8007
8246
7998
8236
8028
8177
8078
8112
8129
8073
8154
8071
8141
8102
8095
8171
8028
8231
7979
8273
7964
8256
7984
8207
8044
8145
8133
8076
8185
8041
8205
8042
8170
8089
8129
8153
8075
8180
8028
8186
8030
8163
8078
8101
8155
8023
8226
7972
8270
7962
8265
7997
8221
8047
8147
8105
8087
8145
8067
8153
8083
8118
8128
8060
8196
8010
8238
7982
8241
8002
8197
8051
8138
8134
8053
8192
8007
8226
7996
8224
8032
8176
8081
8111
8129
8070
8162
8064
8159
8102
8107
8169
8048
8233
7984
8269
7962
8273
7978
8225
8043
8171
8113
8094
8169
8060
8186
8052
8159
8085
8103
8139
8056
8182
8016
8207
8029
8184
8064
8125
8141
8048
8215
7995
8253
7972
8260
7998
8221
8043
8158
8097
8096
8142
8074
8157
8084
8123
8133
8068
8193
8008
8251
7976
8243
7990
8230
8042
8166
8118
8092
8181
8028
8212
8009
8200
8032
8163
8084
8112
8141
8068
8170
8059
8173
8082
8124
8147
8040
8211
7992
8265
7959
8279
7968
8234
8020
8176
8085
8112
8152
8061
8162
8062
8157
8092
8113
8144
8053
8202
8013
8218
8013
8203
8055
8147
8129
8087
8202
8014
8247
7990
8265
7999
8225
8043
8161
8102
8102
8137
8064
8150
8080
8121
8126
8064
8196
8008
8250
7974
8271
7975
8240
8021
8175
8096
8106
8162
8047
8204
8024
8201
8040
8158
8091
8103
8150
8063
8179
8043
8180
8077
8137
8143
8070
8208
8003
8256
7969
8285
7976
8245
8017
8186
8079
8123
8148
8082
8173
8064
8152
8100
8109
8154
8051
8206
8006
8233
7997
8219
8038
8171
8111
8099
8181
8026
8228
7989
8244
7994
8215
8043
8165
8099
8104
8150
8076
8161
8080
8148
8141
8089
8207
8030
8261
7978
8281
7965
8246
8007
8190
8072
8121
8140
8055
8187
8038
8193
8046
8152
8095
8101
8151
8053
8197
8046
8194
8052
8151
8119
8070
8182
8009
8240
7965
8273
7963
8246
8004
8193
8072
8133
8123
8082
8157
8073
8149
8098
8109
8164
8055
8214
8011
8255
7998
8235
8023
8187
8090
8112
8163
8040
8221
8004
8229
7999
8207
8044
8150
8100
8095
8144
8063
8160
8075
8148
8124
8082
8179
8017
8234
7966
8274
7958
8248
7992
8202
8057
8145
8136
8078
8187
8051
8196
8063
8152
8105
8096
8158
8051
8211
8032
8210
8051
8169
8118
8109
8182
8030
8240
7992
8278
7981
8261
8015
8207
8067
8144
8122
8083
8154
8069
8151
8103
8111
8160
8048
8220
7997
8253
7979
8240
7997
8196
8057
8123
8139
8059
8199
8024
8223
8012
8205
8051
8151
8105
8095
8154
8060
8184
8067
8159
8108
8094
8180
8031
8243
7974
8271
7954
8269
7993
8225
8049
8153
8123
8094
8177
8063
8176
8067
8144
8108
8095
8163
8044
8223
8020
8218
8030
8185
8093
8121
8153
8040
8218
7992
8250
7975
8251
8007
8203
8061
8135
8117
8086
8153
8076
8150
8097
8118
8167
8058
8225
8006
8267
7982
8274
7995
8228
8058
8161
8123
8067
8179
8025
8205
8024
8193
8057
8148
8109
8093
8161
8057
8186
8053
8166
8088
8111
8168
8039
8231
7988
8275
7956
8278
7983
8228
8041
8166
8101
8103
8164
8070
8163
8074
8146
8118
8093
8176
8044
8229
8010
8235
8026
8213
8074
8148
8150
8065
8211
8017
8249
7991
8255
8007
8200
8064
8138
8120
8085
8148
8067
8151
8089
8112
8152
8055
8212
7995
8264
7967
8276
7984
8236
8035
8169
8111
8102
8170
8044
8194
8035
8190
8070
8143
8116
8084
8164
8047
8199
8044
8185
8086
8139
8151
8058
8227
7997
8271
7973
8273
7979
8240
8041
8183
8097
8114
8159
8074
8158
8073
8141
8117
8085
8170
8032
8233
8000
8249
8002
8225
8044
8161
8117
8085
8186
8019
8229
7993
8240
8018
8198
8068
8143
8121
8089
8168
8077
8176
8096
8136
8148
8065
8204
8003
8261
7964
8279
7968
8240
8016
8186
8085
8128
8167
8070
8197
8047
8180
8076
8134
8115
8078
8164
8034
8201
8033
8198
8068
8151
8134
8066
8199
7999
8244
7965
8276
7982
8238
8025
8184
8090
8116
8140
8082
8164
8089
8140
8124
8092
8185
8036
8244
7995
8261
7991
8237
8030
8181
8103
8108
8178
8044
8225
8017
8243
8024
8202
8072
8138
8121
8088
8160
8065
8179
8082
8145
8136
8067
8201
8006
8256
7965
8276
7970
8250
8012
8201
8070
8124
8145
8070
8180
8055
8171
8075
8127
8122
8082
8195
8034
8221
8019
8209
8052
8162
8118
8096
8193
8028
8254
7997
8279
7997
8259
8032
8186
8086
8116
8133
8083
8156
8079
8140
8114
8090
8182
8032
8233
7992
8279
7986
8248
8017
8197
8088
8126
8160
8055
8209
8015
8214
8023
8179
8072
8125
8121
8075
8165
8055
8189
8074
8154
8127
8097
8197
8022
8253
7977
8282
7972
8267
7999
8204
8062
8149
8135
8082
8171
8063
8166
8086
8135
8131
8074
8195
8023
8234
8009
8225
8033
8180
8099
8115
8172
8040
8225
7992
8263
7989
8253
8034
8196
8093
8128
8142
8088
8163
8080
8150
8109
8098
8175
8035
8237
7994
8284
7981
8255
7996
8215
8064
8143
8137
8075
8193
8038
8210
8039
8175
8081
8128
8135
8081
8177
8050
8199
8063
8166
8105
8101
8173
8027
8239
7975
8274
7964
8270
7997
8216
8054
8157
8113
8089
8154
8065
8158
8088
8128
8136
8079
8198
8023
8254
8009
8241
8027
8202
8072
8140
8155
8065
8218
8013
8245
7998
8242
8033
8193
8088
8123
8140
8081
8163
8076
8161
8104
8101
8166
8035
8227
7980
8278
7964
8270
7975
8217
8042
8164
8124
8103
8184
8055
8200
8042
8162
8076
8114
8129
8070
8184
8038
8213
8050
8193
8102
8128
8167
8054
8238
8001
8283
7978
8280
8000
8222
8044
8156
8099
8094
8145
8067
8156
8092
8131
8131
8067
8198
8013
8247
7983
8245
8001
8215
8055
8160
8134
8091
8201
8028
8236
8008
8235
8032
8182
8086
8121
8143
8084
8166
8069
8175
8100
8127
8164
8051
8234
8001
8279
7969
8285
7988
8240
8036
8183
8115
8117
8168
8068
8193
8066
8172
8098
8129
8152
8067
8191
8030
8216
8031
8195
8065
8136
8142
8063
8210
8001
8257
7989
8275
8006
8236
8053
8167
8103
8101
8145
8071
8156
8088
8135
8151
8088
8215
8028
8254
7987
8279
7999
8239
8043
8188
8118
8102
8177
8041
8217
8028
8218
8043
8187
8088
8113
8142
8076
8172
8060
8183
8083
8125
8146
8059
8210
7998
8272
7967
8283
7975
8246
8027
8199
8089
8128
8154
8070
8175
8059
8158
8097
8120
8155
8068
8215
8037
8247
8020
8217
8046
8154
8121
8090
8194
8026
8251
7995
8273
8005
8228
8041
8175
8102
8111
8151
8079
8160
8082
8136
8126
8076
8192
8016
8257
7982
8280
7981
8252
8020
8189
8094
8117
8156
8053
8201
8031
8209
8054
8174
8100
8122
8153
8070
8196
8049
8195
8071
8146
8135
8077
8203
8016
8260
7979
8289
7979
8274
8020
8200
8073
8140
8141
8084
8178
8076
8159
8099
8115
8153
8058
8215
8016
8249
8011
8225
8032
8179
8101
8110
8175
8036
8233
8000
8256
8002
8218
8042
8170
8102
8107
8149
8080
8168
8079
8151
8141
8090
8200
8034
8256
7983
8291
7980
8258
8004
8210
8069
8138
8137
8071
8189
8049
8204
8058
8162
8100
8104
8156
8068
8200
8036
8201
8055
8164
8117
8108
8189
8029
8242
7985
8281
7975
8267
8013
8201
8065
8150
8128
8099
8164
8083
8161
8100
8114
8166
8070
8226
8022
8263
7993
8250
8015
8200
8083
8134
8154
8060
8217
8028
8247
8024
8230
8047
8174
8103
8107
8151
8069
8164
8069
8156
8109
8088
8167
8032
8238
7985
8286
7964
8274
7998
8224
8051
8159
8131
8094
8182
8056
8191
8068
8159
8109
8105
8162
8056
8209
8032
8222
8044
8190
8101
8127
8174
8045
8232
7996
8279
7987
8267
8011
8208
8063
8149
8124
8098
8158
8075
8156
8096
8115
8158
8054
8211
8007
8263
7983
8261
8004
8220
8060
8163
8142
8089
8195
8031
8222
8019
8222
8053
8159
8106
8106
8155
8072
8194
8065
8174
8101
8122
8173
8049
8237
7996
8284
7972
8291
8000
8247
8047
8185
8123
8110
8173
8066
8172
8068
8148
8102
8101
8156
8044
8220
8016
8236
8023
8194
8065
8143
8141
8058
8210
8004
8257
7988
8260
8008
8212
8058
8152
8110
8097
8153
8079
8158
8097
8127
8159
8073
8221
8011
8266
7981
8273
7986
8243
8047
8184
8122
8116
8184
8061
8219
8037
8202
8061
8155
8115
8105
8170
8062
8194
8051
8181
8074
8137
8153
8062
8217
8003
8281
7969
8290
7984
8250
8036
8196
8100
8130
8160
8088
8183
8078
8153
8116
8103
8174
8045
8219
8006
8241
8015
8224
8057
8172
8124
8097
8193
8027
8243
8002
8253
8016
8214
8067
8148
8124
8105
8157
8071
8160
8091
8137
8152
8078
8214
8024
8279
7987
8290
7977
8238
8008
8183
8090
8113
8155
8061
8193
8036
8204
8067
8160
8124
8108
8169
8049
8205
8045
8203
8075
8151
8135
8073
8213
8023
8263
7980
8287
7986
8263
8026
8196
8082
8134
8151
8083
8168
8085
8151
8111
8105
8171
8047
8242
8009
8265
8000
8243
8037
8193
8116
8123
8177
8049
8230
8008
8243
8023
8205
8057
8142
8110
8095
8165
8073
8180
8086
8152
8142
8088
8202
8020
8271
7982
8291
7979
8278
8008
8209
8075
8149
8156
8082
8195
8061
8174
8071
8142
8118
8091
8174
8043
8213
8033
8213
8049
8166
8124
8105
8189
8024
8245
7986
8282
7988
8253
8018
8200
8076
8144
8136
8094
8167
8089
8154
8118
8114
8183
8051
8236
8003
8279
7991
8253
8017
8210
8089
8136
8161
8067
8208
8031
8230
8029
8202
8074
8148
8130
8101
8170
8071
8187
8078
8162
8124
8095
8182
8022
8241
7976
8280
7963
8272
8001
8225
8062
8155
8138
8102
8188
8072
8185
8082
8145
8125
8087
8190
8044
8240
8026
8242
8047
8194
8095
8118
8159
8036
8224
7998
8267
7989
8251
8024
8202
8079
8130
8132
8094
8158
8073
8147
8106
8106
8172
8045
8225
7992
8275
7979
8276
8000
8217
8060
8153
8132
8073
8199
8042
8216
8040
8189
8077
8146
8131
8094
8180
8068
8211
8081
8185
8112
8119
8179
8040
8235
7988
8292
7975
8287
8000
8229
8050
8166
8108
8093
8169
8075
8166
8083
8143
8129
8087
8199
8034
8240
8003
8234
8016
8204
8058
8146
8150
8070
8216
8014
8252
8007
8253
8032
8202
8083
8144
8138
8099
8170
8086
8172
8109
8139
8174
8063
8241
8012
8277
7967
8277
7986
8234
8042
8171
8120
8110
8178
8054
8211
8063
8207
8091
8148
8133
8093
8184
8051
8206
8042
8185
8077
8123
8152
8057
8225
7998
8279
7974
8275
7987
8231
8042
8177
8104
8117
8165
8083
8168
8088
8143
8135
8086
8195
8033
8250
8004
8264
8011
8234
8057
8174
8138
8104
8203
8039
8246
8019
8245
8032
8207
8081
8140
8134
8089
8170
8078
8181
8097
8139
8153
8062
8215
8005
8275
7982
8292
7985
8249
8025
8191
8105
8128
8167
8073
8199
8060
8175
8085
8140
8139
8084
8185
8039
8218
8033
8207
8076
8158
8151
8089
8210
8013
8263
7990
8280
7998
8240
8044
8190
8101
8116
8147
8086
8170
8094
8143
8131
8094
8195
8030
8249
7991
8273
7984
8227
8027
8175
8098
8109
8182
8051
8224
8028
8244
8046
8203
8087
8135
8140
8086
8176
8068
8187
8082
8149
8144
8083
8213
8014
8275
7979
8292
7973
8256
8015
8200
8085
8141
8154
8079
8182
8070
8172
8089
8135
8142
8076
8189
8023
8229
8017
8225
8045
8175
8123
8106
8190
8030
8245
8000
8269
7993
8250
8035
8186
8094
8121
8136
8087
8162
8086
8161
8127
8097
8193
8043
8257
7994
8277
7989
8265
8021
8220
8094
8145
8163
8077
8209
8041
8223
8049
8184
8087
8138
8143
8078
8181
8056
8200
8064
8160
8127
8103
8195
8029
8258
7982
8295
7975
8277
8008
8220
8074
8153
8137
8091
8168
8068
8167
8100
8127
8149
8078
8212
8032
8253
8006
8240
8031
8197
8100
8140
8173
8056
8233
8005
8264
8009
8247
8048
8197
8098
8124
8148
8094
8175
8082
8163
8114
8098
8180
8030
8228
7984
8281
7975
8275
8000
8224
8059
8156
8130
8081
8188
8050
8208
8053
8176
8093
8128
8144
8081
8204
8049
8218
8073
8189
8121
8122
8187
8044
8248
7992
8278
7975
8274
8002
8224
8058
8157
8114
8091
8169
8073
8162
8102
8136
8148
8074
8206
8021
8258
7999
8252
8021
8214
8069
8149
8154
8074
8210
8025
8245
8014
8243
8049
8193
8102
8131
8149
8084
8172
8075
8170
8112
8129
8182
8051
8231
7997
8287
7981
8291
7999
8244
8054
8179
8121
8117
8180
8069
8198
8063
8174
8100
8124
8159
8069
8195
8032
8219
8040
8195
8080
8137
8157
8064
8230
8013
8279
7983
8283
8011
8233
8064
8173
8114
8101
8149
8083
8159
8091
8128
8138
8077
8210
8021
8261
7994
8272
8003
8238
8056
8174
8130
8104
8192
8047
8233
8028
8232
8052
8188
8102
8124
8147
8083
8178
8066
8183
8090
8137
8165
8052
8223
8004
8277
7979
8296
7986
8258
8037
8200
8112
8131
8170
8086
8193
8075
8165
8106
8125
8175
8068
8227
8038
8239
8031
8216
8066
8164
8145
8087
8214
8031
8260
7992
8266
8005
8224
8052
8169
8106
8108
8150
8079
8165
8094
8130
8130
8074
8200
8020
8261
7983
8276
7986
8254
8040
8194
8109
8128
8180
8063
8222
8043
8219
8063
8187
8104
8118
8153
8069
8197
8056
8194
8087
8152
8151
8079
8217
8013
8280
7978
8290
7982
8273
8032
8204
8090
8144
8164
8099
8185
8076
8153
8097
8111
8152
8055
8214
8014
8251
8013
8225
8047
8181
8123
8116
8206
8051
8259
8014
8262
8009
8210
8043
8152
8103
8109
8158
8093
8169
8088
8160
8153
8100
8214
8036
8266
7985
8288
7975
8254
8010
8206
8073
8134
8151
8062
8194
8051
8210
8066
8165
8109
8120
8168
8072
8207
8052
8194
8062
8161
8134
8101
8197
8029
8257
7987
8295
7988
8271
8024
8211
8080
8146
8145
8095
8164
8082
8160
8101
8111
8172
8065
8225
8014
8263
8007
8247
8036
8200
8104
8135
8178
8058
8230
8023
8252
8019
8232
8061
8174
8112
8113
8158
8076
8171
8077
8161
8128
8096
8194
8032
8249
7985
8288
7981
8282
8003
8220
8073
8165
8146
8092
8194
8061
8207
8079
8162
8114
8111
8165
8059
8225
8038
8222
8056
8191
8119
8126
8185
8048
8252
7999
8288
7993
8272
8027
8215
8078
8152
8129
8104
8166
8079
8157
8105
8121
8168
8057
8225
8010
8263
7999
8280
8020
8217
8069
8149
8153
8078
8213
8035
8239
8023
8224
8061
8175
8120
8111
8163
8073
8187
8071
8169
8123
8120
8180
8044
8249
7997
8287
7976
8284
8002
8239
8053
8170
8127
8102
8176
8076
8194
8083
8159
8119
8108
8185
8055
8229
8022
8236
8038
8203
8099
8129
8157
8053
8216
7998
8268
7982
8262
8012
8209
8068
8156
8124
8100
8165
8087
8177
8115
8128
8171
8062
8229
8009
8275
7986
8277
8001
8236
8066
8170
8140
8107
8198
8058
8230
8043
8227
8069
8160
8121
8102
8168
8069
8204
8075
8191
8114
8138
8176
8055
8238
7992
8279
7976
8287
7995
8246
8047
8182
8104
8113
8165
8076
8178
8085
8154
8127
8109
8190
8056
8244
8014
8245
8023
8215
8072
8156
8150
8091
8212
8018
8253
8005
8260
8023
8219
8076
8165
8125
8097
8160
8081
8174
8102
8138
8161
8064
8223
8005
8276
7978
8285
7985
8246
8045
8187
8120
8115
8183
8064
8218
8057
8210
8077
8157
8124
8099
8181
8062
8214
8061
8199
8094
8151
8165
8072
8237
8012
8286
7980
8296
8003
8251
8047
8193
8095
8112
8157
8081
8172
8087
8150
8121
8096
8183
8048
8246
8013
8259
8008
8236
8056
8174
8124
8099
8202
8037
8239
8003
8252
8027
8209
8071
8149
8130
8101
8171
8084
8193
8109
8147
8165
8078
8223
8019
8281
7983
8292
7983
8258
8026
8203
8113
8139
8168
8076
8204
8063
8198
8076
8148
8128
8093
8180
8052
8217
8032
8200
8068
8164
8138
8094
8211
8023
8267
7987
8291
7997
8245
8032
8199
8098
8131
8159
8095
8174
8097
8156
8132
8105
8191
8047
8251
8006
8280
8008
8251
8041
8199
8118
8129
8182
8049
8230
8030
8250
8040
8215
8084
8146
8132
8096
8169
8068
8184
8082
8147
8144
8083
8213
8022
8260
7980
8291
7972
8262
8014
8211
8086
8143
8154
8083
8196
8066
8184
8091
8142
8143
8096
8199
8051
8246
8036
8226
8066
8184
8131
8107
8196
8034
8247
7990
8285
8005
8258
8035
8197
8091
8128
8146
8095
8161
8076
8140
8123
8096
8181
8033
8239
7995
8280
7987
8253
8020
8206
8096
8130
8164
8060
8213
8035
8224
8037
8196
8081
8146
8142
8093
8185
8071
8204
8083
8167
8139
8103
8205
8032
8271
7987
8300
7979
8278
8013
8224
8082
8161
8145
8103
8192
8079
8185
8101
8136
8139
8076
8193
8029
8223
8013
8227
8043
8186
8105
8126
8182
8050
8248
8006
8278
8000
8247
8036
8197
8093
8126
8147
8091
8169
8088
8167
8128
8111
8189
8048
8247
7998
8291
7988
8280
8018
8229
8088
8161
8159
8088
8210
8053
8224
8055
8203
8092
8143
8148
8086
8188
8063
8206
8075
8178
8127
8122
8190
8038
8252
7989
8290
7981
8277
8006
8222
8069
8165
8135
8104
8177
8084
8177
8104
8140
8139
8086
8215
8039
8255
8010
8251
8032
8207
8101
8146
8177
8069
8230
8026
8265
8012
8253
8039
8192
8095
8132
8141
8092
8169
8078
8158
8109
8103
8175
8043
8239
7993
8281
7975
8284
8010
8241
8064
8167
8137
8102
8197
8060
8219
8065
8187
8102
8138
8159
8091
8220
8052
8212
8052
8180
8103
8124
8178
8051
8253
8003
8295
7987
8286
8007
8229
8063
8177
8126
8113
8170
8083
8164
8095
8133
8141
8077
8210
8032
8265
8007
8259
8022
8216
8070
8155
8154
8092
8222
8032
8252
8025
8246
8049
8197
8102
8126
8154
8084
8182
8077
8173
8110
8129
8181
8057
8240
8005
8295
7987
8296
8002
8250
8060
8184
8130
8114
8178
8070
8196
8069
8176
8107
8121
8148
8069
8205
8032
8223
8046
8206
8100
8148
8164
8066
8232
8002
8273
7989
8279
8007
8239
8062
8175
8128
8118
8161
8089
8165
8101
8131
8138
8075
8210
8024
8261
7995
8274
8010
8238
8060
8175
8139
8093
8201
8043
8236
8023
8231
8051
8187
8100
8126
8157
8074
8177
8064
8174
8099
8128
8164
8063
8232
8005
8293
7982
8302
7997
8253
8041
8193
8114
8131
8166
8085
8195
8081
8175
8110
8130
8180
8074
8232
8039
8235
8032
8219
8083
8169
8159
8094
8228
8025
8271
7996
8271
8008
8231
8067
8180
8124
8113
8164
8089
8168
8102
8128
8153
8074
8209
8021
8267
7982
8281
7996
8245
8042
8186
8127
8122
8193
8063
8228
8041
8231
8061
8188
8121
8132
8169
8084
8211
8073
8190
8094
8143
8152
8076
8212
8011
8283
7976
8296
7990
8261
8035
8200
8114
8141
8162
8087
8200
8093
8172
8113
8118
8172
8056
8213
8016
8256
8014
8221
8054
8171
8126
8101
8207
8039
8254
8009
8277
8021
8232
8062
8174
8118
8114
8158
8087
8170
8095
8148
8149
8091
8216
8030
8276
7987
8294
7991
8260
8029
8207
8106
8131
8168
8072
8215
8051
8219
8073
8183
8125
8111
8165
8068
8204
8052
8195
8068
8158
8142
8093
8214
8020
8268
7978
8293
7990
8267
8028
8216
8094
8147
8162
8099
8183
8091
8163
8120
8118
8182
8062
8242
8021
8272
8009
8249
8047
8195
8119
8123
8181
8048
8241
8017
8261
8025
8235
8067
8176
8121
8116
8164
8080
8184
8084
8153
8146
8087
8206
8032
8269
7986
8299
7981
8269
8020
8211
8080
8153
8162
8084
8195
8061
8199
8072
8165
8118
8112
8187
8070
8221
8049
8224
8071
8185
8131
8110
8203
8039
8258
7994
8292
7994
8279
8028
8214
8085
8149
8134
8090
8165
8085
8158
8115
8114
8172
8060
8254
8021
8284
8015
8268
8037
8212
8099
8141
8170
8055
8212
8017
8229
8014
8209
8063
8171
8127
8107
8169
8078
8192
8083
8169
8138
8118
8203
8043
8265
8002
8304
7979
8281
8010
8221
8068
8158
8135
8088
8184
8066
8197
8079
8162
8131
8105
8185
8052
8233
8039
8230
8048
8189
8111
8124
8184
8051
8243
8006
8287
7997
8267
8017
8212
8082
8159
8143
8107
8176
8101
8164
8116
8126
8178
8059
8234
8007
8272
7995
8260
8016
8223
8086
8156
8151
8078
8211
8036
8231
8041
8229
8078
8162
8124
8101
8175
8075
8205
8077
8180
8123
8122
8190
8053
8251
7993
8289
7973
8290
8001
8231
8066
8178
8136
8108
8187
8078
8197
8088
8155
8141
8111
8194
8053
8243
8021
8236
8036
8205
8099
8144
8174
8073
8235
8016
8278
8004
8264
8027
8217
8086
8157
8135
8098
8164
8088
8160
8107
8123
8173
8059
8231
8008
8277
7987
8287
8013
8246
8065
8179
8142
8109
8197
8056
8227
8049
8194
8077
8157
8141
8107
8181
8065
8205
8067
8188
8110
8129
8170
8060
8244
7998
8294
7985
8293
8000
8243
8053
8179
8114
8116
8172
8079
8178
8089
8148
8132
8098
8198
8043
8250
8015
8250
8024
8221
8075
8166
8151
8089
8223
8030
8261
8013
8259
8033
8212
8083
8149
8140
8112
8175
8088
8183
8107
8145
8173
8069
8239
8015
8286
7985
8294
8002
8257
8048
8183
8127
8118
8180
8066
8206
8053
8188
8080
8144
8137
8093
8184
8055
8214
8047
8196
8085
8145
8159
8075
8236
8011
8280
7978
8288
8001
8242
8044
8187
8113
8125
8168
8094
8183
8103
8153
8137
8099
8203
8037
8254
8003
8269
8012
8236
8057
8182
8137
8104
8207
8045
8245
8023
8249
8034
8211
8090
8142
8145
8092
8169
8081
8178
8096
8144
8167
8077
8228
8013
8280
7977
8286
7982
8257
8039
8204
8114
8136
8173
8081
8203
8073
8191
8095
8148
8144
8101
8207
8054
8234
8045
8217
8082
8158
8152
8095
8218
8022
8263
7994
8279
7999
8257
8048
8195
8105
8129
8169
8090
8175
8104
8153
8140
8099
8207
8039
8262
8007
8281
8000
8254
8043
8188
8103
8115
8178
8057
8231
8032
8247
8049
8200
8088
8136
8148
8092
8174
8069
8185
8089
8154
8160
8092
8220
8027
8285
7984
8299
7983
8264
8027
8213
8091
8149
8166
8095
8196
8074
8180
8096
8134
8142
8076
8198
8029
8232
8029
8221
8057
8178
8128
8116
8210
8047
8261
8003
8283
8009
8262
8050
8201
8102
8123
8150
8088
8174
8095
8169
8148
8103
8200
8042
8265
8002
8294
7998
8268
8035
8219
8103
8147
8168
8071
8208
8043
8216
8052
8198
8094
8133
8146
8089
8189
8063
8204
8076
8164
8137
8102
8208
8031
8264
7988
8301
7989
8285
8026
8225
8081
8165
8153
8100
8183
8081
8174
8105
8139
8146
8080
8222
8039
8258
8020
8243
8047
8195
8112
8130
8189
8059
8249
8019
8274
8016
8252
8048
8194
8105
8126
8143
8079
8168
8092
8165
8119
8106
8195
8045
8244
7993
8286
7983
8281
8016
8224
8076
8163
8156
8088
8205
8056
8216
8060
8178
8098
8133
8155
8084
8203
8054
8213
8074
8188
8128
8120
8196
8051
8254
7992
8293
7985
8284
8017
8238
8078
8168
8147
8113
8180
8087
8171
8106
8133
8141
8069
8204
8014
8254
7999
8249
8026
8213
8092
8142
8167
8073
8230
8024
8259
8027
8250
8052
8193
8103
8131
8152
8085
8194
8089
8172
8130
8128
8191
8057
8259
8006
8296
7980
8295
8001
8236
8058
8170
8142
8099
8181
8064
8208
8069
8174
8112
8135
8165
8077
8229
8048
8221
8048
8195
8105
8135
8174
8050
8235
8000
8282
7987
8275
8003
8218
8057
8168
8130
8117
8182
8085
8172
8107
8140
8169
8084
8227
8028
8273
7999
8281
8016
8229
8073
8171
8144
8096
8206
8045
8244
8030
8240
8061
8187
8104
8123
8156
8081
8196
8076
8187
8126
8141
8185
8058
8229
8001
8290
7979
8293
8003
8251
8052
8190
8131
8122
8186
8080
8205
8078
8172
8116
8126
8167
8074
8240
8045
8248
8047
8216
8106
8161
8170
8089
8233
8022
8280
7990
8282
8014
8229
8066
8181
8130
8111
8158
8075
8156
8097
8133
8154
8076
8224
8026
8272
7997
8286
8005
8243
8056
8184
8136
8119
8201
8058
8232
8046
8229
8060
8186
8116
8128
8172
8081
8201
8069
8188
8101
8142
8157
8063
8239
8012
8296
7980
8292
7995
8254
8040
8199
8121
8142
8169
8081
8192
8080
8161
8117
8119
8179
8066
8232
8035
8262
8033
8228
8065
8173
8147
8101
8216
8034
8257
8005
8268
8016
8232
8067
8177
8119
8108
8168
8097
8187
8110
8155
8157
8084
8228
8032
8288
8001
8295
7992
8251
8025
8191
8110
8126
8174
8070
8221
8058
8218
8070
8164
8112
8114
8164
8068
8206
8057
8202
8092
8168
8155
8098
8226
8029
8292
7993
8301
7997
8275
8034
8213
8102
8151
8164
8097
8191
8095
8175
8131
8125
8190
8065
8242
8021
8258
8002
8235
8055
8194
8132
8125
8195
8049
8239
8015
8258
8013
8214
8058
8165
8118
8109
8157
8078
8176
8089
8148
8141
8089
8213
8033
8278
7996
8304
7989
8285
8036
8223
8098
8151
8170
8097
8214
8071
8209
8079
8164
8122
8108
8177
8072
8225
8057
8226
8078
8183
8143
8110
8205
8035
8260
7993
8287
7990
8270
8029
8211
8091
8150
8150
8094
8170
8082
8148
8111
8114
8178
8058
8248
8022
8280
8009
8267
8039
8219
8107
8148
8173
8060
8217
8019
8251
8036
8232
8072
8174
8124
8113
8172
8090
8193
8088
8169
8140
8095
8201
8033
8253
7994
8302
7981
8295
8020
8238
8078
8164
8145
8096
8189
8068
8195
8084
8160
8126
8105
8195
8061
8234
8034
8231
8041
8185
8104
8125
8179
8044
8241
8010
8291
7996
8274
8034
8223
8092
8161
8145
8106
8176
8092
8165
8126
8128
8184
8062
8233
8006
8279
7998
8284
8025
8229
8073
8160
8155
8101
8213
8045
8227
8044
8222
8074
8161
8129
8099
8171
8075
8203
8079
8180
8121
8121
8196
8051
8257
8009
8308
7994
8312
8014
8248
8064
8178
8121
8100
8168
8069
8178
8085
8159
8132
8111
8193
8059
8254
8030
8246
8041
8221
8102
8156
8165
8086
8238
8025
8282
8009
8273
8031
8220
8083
8159
8134
8102
8162
8081
8176
8106
8121
8171
8065
8236
8017
8288
7984
8278
7996
8247
8055
8187
8139
8116
8195
8061
8224
8057
8225
8095
8169
8144
8106
8189
8074
8215
8066
8197
8103
8131
8156
8051
8231
8003
8283
7984
8292
7998
8253
8050
8186
8115
8123
8163
8083
8170
8086
8148
8131
8103
8191
8052
8246
8012
8267
8026
8227
8065
8173
8153
8102
8216
8038
8256
8025
8271
8042
8227
8093
8169
8143
8107
8169
8090
8190
8110
8145
8167
8071
8228
8019
8296
7996
8308
8006
8272
8045
8203
8117
8128
8172
8070
8201
8044
8174
8070
8137
8121
8090
8181
8055
8225
8060
8218
8092
8166
8165
8097
8225
8023
8280
7990
8294
8000
8260
8050
8202
8108
8133
8167
8100
8182
8096
8157
8138
8107
8201
8048
8256
8008
8280
8014
8255
8049
8199
8122
8121
8190
8055
8236
8019
8252
8037
8207
8078
8144
8136
8098
8179
8079
8183
8090
8156
8149
8081
8223
8019
8281
7988
8298
7981
8262
8025
8212
8105
8148
8164
8091
8201
8072
8189
8101
8154
8152
8099
8207
8054
8250
8042
8231
8074
8185
8136
8113
8211
8041
8260
7996
8287
8002
8259
8043
8208
8104
8135
8148
8083
8165
8091
8156
8131
8105
8193
8048
8267
8015
8292
8007
8270
8033
8214
8103
8141
8173
8068
8218
8033
8229
8048
8203
8089
8145
8137
8090
8179
8070
8198
8082
8171
8149
8114
8217
8043
8267
7993
8298
7981
8287
8025
8232
8086
8167
8151
8105
8194
8082
8182
8103
8147
8154
8096
8221
8047
8245
8015
8228
8039
8184
8111
8127
8183
8057
8247
8009
8280
8013
8256
8042
8206
8101
8140
8150
8101
8180
8098
8172
8133
8135
8204
8059
8270
8006
8292
7988
8277
8017
8228
8089
8158
8156
8084
8208
8050
8226
8057
8201
8089
8136
8146
8088
8189
8061
8206
8073
8182
8135
8128
8201
8054
8262
8003
8308
7990
8292
8016
8229
8071
8168
8131
8108
8184
8088
8181
8106
8150
8163
8090
8219
8041
8263
8019
8261
8038
8216
8092
8151
8170
8086
8239
8034
8274
8016
8258
8042
8198
8093
8129
8154
8095
8174
8087
8173
8113
8114
8186
8056
8244
8003
8301
7988
8292
8009
8242
8065
8177
8140
8112
8197
8072
8211
8061
8184
8098
8140
8156
8088
8221
8056
8229
8065
8201
8118
8140
8183
8064
8251
8006
8294
7992
8288
8005
8230
8062
8178
8118
8105
8171
8089
8169
8102
8141
8162
8089
8225
8045
8269
8008
8274
8017
8225
8066
8168
8147
8090
8210
8038
8245
8018
8247
8051
8195
8100
8139
8156
8097
8184
8087
8187
8114
8141
8181
8066
8242
8010
8294
7984
8299
8005
8259
8050
8187
8120
8125
8183
8078
8209
8075
8176
8106
8137
8159
8083
8227
8045
8232
8043
8214
8097
8150
8159
8089
8229
8014
8267
7995
8289
8009
8244
8058
8179
8117
8111
8163
8088
8172
8106
8145
8161
8094
8218
8043
8272
8003
8281
8004
8250
8050
8185
8131
8118
8198
8055
8232
8038
8241
8059
8193
8106
8133
8159
8087
8201
8077
8195
8106
8157
8180
8083
8235
8021
8290
7983
8307
7990
8264
8044
8209
8115
8138
8167
8089
8198
8087
8186
8119
8141
8176
8080
8228
8035
8258
8036
8225
8064
8174
8149
8110
8212
8034
8259
8001
8278
8009
8236
8062
8183
8111
8116
8159
8091
8167
8099
8153
8148
8090
8211
8039
8273
8003
8297
8007
8276
8040
8212
8116
8138
8179
8073
8220
8047
8222
8065
8191
8110
8127
8165
8081
8206
8067
8207
8087
8155
8148
8103
8221
8026
8268
7997
8307
8003
8291
8037
8220
8090
8153
8147
8092
8188
8085
8167
8109
8119
8155
8066
8238
8029
8264
8020
8245
8048
8202
8124
8128
8189
8052
8243
8016
8271
8020
8249
8062
8185
8114
8120
8164
8095
8177
8099
8171
8160
8113
8212
8046
8278
7998
8303
7988
8288
8022
8218
8094
8157
8158
8084
8206
8062
8215
8070
8172
8115
8120
8169
8079
8218
8055
8225
8074
8186
8139
8123
8204
8037
8260
7991
8291
7987
8283
8026
8223
8088
8158
8148
8106
8186
8087
8168
8116
8130
8176
8072
8230
8023
8277
8014
8263
8041
8218
8104
8146
8177
8072
8235
8030
8260
8029
8240
8067
8185
8116
8124
8170
8083
8193
8088
8175
8139
8114
8195
8046
8257
7995
8300
7980
8296
8010
8238
8072
8171
8149
8105
8196
8065
8207
8070
8167
8120
8128
8191
8077
8237
8053
8234
8050
8189
8110
8136
8184
8062
8258
8011
8297
8001
8285
8031
8226
8075
8156
8134
8104
8167
8089
8167
8117
8133
8176
8066
8228
8019
8275
7998
8283
8023
8230
8070
8164
8150
8098
8212
8039
8245
8034
8232
8069
8187
8130
8123
8177
8081
8194
8086
8182
8128
8133
8191
8057
8252
7997
8299
7981
8294
8003
8248
8054
8184
8136
8122
8184
8079
8195
8077
8162
8118
8111
8184
8065
8243
8042
8246
8047
8222
8106
8154
8168
8073
8233
8016
8274
8004
8270
8019
8227
8068
8161
8130
8110
8176
8098
8190
8110
8131
8175
8072
8233
8025
8290
7996
8292
8011
8247
8058
8180
8136
8113
8194
8047
8220
8042
8226
8072
8180
8125
8115
8176
8075
8211
8070
8195
8123
8144
8180
8066
8245
8016
8304
7999
8314
8008
8255
8055
8186
8121
8129
8170
8084
8173
8078
8160
8130
8114
8200
8058
8253
8032
8262
8034
8233
8093
8168
8157
8094
8223
8031
8265
8013
8278
8030
8228
8080
8166
8135
8105
8168
8086
8180
8106
8143
8168
8080
8232
8024
8290
7994
8296
8002
8259
8052
8195
8130
8133
8197
8076
8236
8073
8224
8083
8163
8133
8109
8182
8061
8213
8068
8206
8112
8160
8169
8093
8237
8016
8282
7979
8290
7992
8249
8047
8197
8112
8142
8169
8089
8176
8097
8160
8126
8106
8191
8050
8249
8017
8268
8017
8239
8062
8182
8145
8114
8214
8048
8255
8022
8267
8038
8224
8085
8164
8137
8110
8172
8092
8190
8108
8153
8171
8088
8233
8024
8288
7987
8302
7999
8267
8042
8215
8124
8154
8191
8087
8216
8061
8202
8082
8141
8124
8086
8183
8059
8224
8053
8213
8083
8176
8156
8100
8224
8027
8283
8000
8305
8006
8271
8052
8212
8113
8147
8166
8091
8179
8099
8159
8142
8112
8200
8052
8261
8010
8278
8008
8251
8046
8195
8119
8125
8193
8052
8236
8020
8254
8045
8217
8093
8157
8146
8106
8185
8089
8198
8100
8153
8150
8085
8210
8021
8282
7983
8297
7987
8284
8034
8217
8103
8150
8165
8089
8208
8074
8202
8098
8150
8145
8105
8208
8054
8249
8047
8231
8075
8183
8140
8122
8216
8050
8274
8008
8288
7997
8253
8037
8192
8090
8130
8153
8092
8166
8102
8167
8136
8113
8206
8052
8270
8011
8286
7994
8264
8039
8217
8111
8149
8183
8085
8229
8043
8231
8050
8212
8087
8143
8143
8102
8188
8084
8207
8088
8176
8150
8110
8214
8037
8270
7990
8301
7984
8287
8023
8235
8096
8179
8165
8104
8187
8079
8178
8092
8146
8145
8092
8216
8047
8247
8023
8232
8049
8196
8122
8131
8191
8050
8245
8009
8275
8005
8257
8045
8201
8108
8160
8159
8104
8178
8102
8180
8135
8123
8209
8064
8277
8017
8301
7997
8290
8012
8224
8069
8153
8149
8081
8202
8046
8219
8054
8197
8089
8140
8147
8092
8191
8069
8216
8077
8185
8131
8123
8196
8044
8261
8005
8301
7991
8296
8023
8239
8084
8176
8155
8120
8192
8091
8184
8116
8150
8168
8093
8216
8046
8268
8030
8259
8037
8217
8096
8141
8171
8067
8227
8023
8268
8010
8253
8039
8198
8098
8129
8151
8096
8174
8090
8173
8127
8128
8190
8056
8249
8015
8307
7995
8304
8022
8251
8071
8174
8149
8120
8202
8067
8222
8069
8183
8103
8141
8159
8091
8222
8053
8220
8065
8202
8127
8144
8189
8066
8252
8005
8291
7988
8292
8011
8230
8069
8171
8124
8114
8180
8098
8170
8108
8146
8160
8081
8217
8032
8261
8003
8258
8019
8229
8087
8165
8160
8095
8219
8045
8258
8032
8253
8051
8196
8105
8141
8155
8087
8178
8087
8181
8115
8145
8190
8065
8248
8014
8300
7987
8300
8008
8253
8055
8189
8137
8124
8185
8078
8209
8079
8184
8114
8139
8178
8086
8226
8042
8229
8048
8206
8096
8144
8168
8071
8243
8028
8297
8004
8293
8019
8246
8064
8178
8119
8113
8158
8088
8175
8115
8160
8166
8086
8216
8031
8278
8008
8292
8019
8246
8068
8189
8143
8113
8204
8056
8242
8034
8242
8057
8197
8111
8139
8168
8098
8210
8085
8194
8108
8147
8174
8072
8243
8015
8293
7991
8311
8006
8262
8047
8202
8119
8137
8181
8095
8207
8082
8174
8116
8128
8161
8079
8237
8041
8241
8042
8225
8095
8173
8160
8107
8231
8035
8267
8002
8284
8014
8238
8062
8178
8116
8110
8156
8084
8170
8093
8153
8163
8101
8229
8039
8281
8004
8294
7997
8257
8045
8197
8124
8132
8186
8066
8227
8049
8231
8058
8189
8112
8131
8168
8084
8211
8079
8210
8101
8164
8172
8098
8232
8019
8287
7982
8305
7993
8274
8039
8209
8100
8144
8162
8083
8186
8080
8169
8115
8131
8179
8066
8240
8034
8269
8028
8242
8069
8186
8140
8119
8207
8050
8251
8012
8281
8035
8260
8076
8195
8125
8118
8166
8089
8167
8096
8155
8151
8096
8221
8031
8275
7988
8289
7992
8264
8024
8211
8106
8146
8174
8078
8215
8058
8218
8069
8175
8125
8130
8172
8078
8219
8059
8213
8084
8175
8155
8114
8223
8042
8271
7991
8296
7995
8283
8040
8222
8098
8155
8157
8094
8170
8089
8171
8128
8131
8194
8080
8257
8035
8283
8026
8267
8055
8207
8118
8128
8174
8048
8233
8011
8248
8013
8219
8065
8177
8118
8111
8163
8091
8191
8097
8168
8155
8103
8214
8035
8273
7996
8303
7992
8295
8032
8231
8098
8163
8167
8096
8206
8066
8203
8087
8189
8142
8127
8198
8080
8239
8056
8230
8068
8186
8135
8127
8208
8051
8263
8008
8287
7988
8273
8027
8214
8081
8149
8133
8097
8171
8091
8170
8128
8135
8188
8075
8261
8030
8285
8007
8272
8034
8218
8100
8148
8164
8067
8227
8033
8254
8037
8229
8061
8173
8130
8120
8184
8094
8210
8107
8193
8153
8130
8204
8056
8261
7996
8298
7976
8286
8009
8233
8067
8159
8132
8090
8187
8072
8200
8092
8168
8138
8120
8200
8066
8243
8048
8244
8059
8208
8119
8142
8183
8040
8217
7981
8267
7988
8260
8011
8205
8059
8135
8123
8097
8164
8088
8163
8115
8151
8200
8091
8284
8056
8332
8042
8325
8059
8270
8116
8193
8178
8119
8224
8061
8246
8054
8233
8082
8164
8133
8109
8179
8081
8214
8080
8181
8125
8136
8195
8064
8257
8008
8304
7984
8298
8001
8236
8051
8174
8137
8116
8177
8082
8194
8086
8155
8133
8100
8185
8045
8236
8009
8230
8016
8192
8068
8135
8146
8055
8213
8000
8250
7991
8260
8022
8216
8078
8144
8131
8103
8173
8097
8185
8122
8148
8197
8092
8254
8029
8291
7987
8288
8000
8241
8057
8184
8145
8133
8221
8091
8249
8069
8230
8100
8188
8153
8127
8229
8101
8258
8096
8225
8148
8167
8190
8074
8247
8008
8295
7980
8293
8002
8250
8058
8198
8133
8123
8178
8095
8185
8098
8151
8120
8076
8171
8025
8227
7981
8226
7991
8203
8050
8152
8146
8090
8212
8046
8282
8043
8297
8083
8274
8132
8202
8191
8145
8207
8106
8205
8135
8164
8188
8096
8247
8036
8299
7989
8301
8001
8259
8047
8190
8119
8122
8174
8063
8205
8056
8192
8082
8151
8140
8089
8181
8046
8205
8043
8197
8081
8150
8159
8072
8226
8022
8281
7990
8288
8000
8250
8048
8193
8114
8124
8165
8088
8173
8099
8154
8139
8101
8202
8045
8253
8008
8270
8006
8243
8057
8183
8134
8114
8203
8062
8258
8027
8261
8045
8208
8084
8139
8128
8085
8172
8070
8178
8095
8138
8153
8071
8223
8025
8290
7982
8303
7991
8265
8038
8209
8114
8147
8186
8104
8225
8090
8210
8102
8164
8166
8114
8235
8072
8257
8064
8239
8086
8175
8163
8103
8218
8032
8277
8001
8298
8008
8265
8052
8201
8118
8138
8172
8103
8174
8100
8147
8131
8098
8211
8053
8268
8009
8290
8008
8262
8046
8208
8133
8148
8197
8073
8231
8033
8251
8052
8214
8099
8154
8154
8111
8221
8089
8207
8101
8164
8159
8106
8230
8031
8281
7978
8290
7978
8264
8029
8222
8095
8149
8155
8081
8181
8065
8165
8086
8128
8143
8092
8218
8057
8261
8044
8252
8078
8201
8152
8126
8226
8058
8276
8030
8308
8028
8264
8047
8192
8097
8128
8143
8080
8160
8077
8138
8115
8081
8187
8022
8250
7993
8285
7997
8261
8030
8216
8108
8156
8189
8104
8253
8086
8277
8098
8243
8133
8181
8198
8115
8226
8081
8223
8100
8179
8147
8103
8204
8037
8273
7992
8307
7991
8284
8022
8228
8080
8151
8139
8088
8179
8074
8157
8094
8127
8144
8074
8209
8025
8250
8014
8234
8044
8200
8116
8130
8195
8069
8261
8018
8280
8025
8261
8061
8204
8116
8146
8182
8110
8205
8110
8187
8163
8143
8216
8055
8280
8008
8302
7987
8275
8011
8226
8090
8161
8156
8090
8202
8048
8209
8063
8196
8105
8136
8161
8089
8231
8074
8219
8080
8189
8130
8112
8191
8030
8244
7982
8283
7983
8292
8032
8231
8089
8170
8147
8105
8187
8094
8183
8124
8148
8176
8083
8227
8022
8262
8003
8245
8023
8201
8094
8143
8169
8058
8228
8025
8261
8012
8247
8060
8193
8109
8129
8167
8103
8206
8106
8184
8149
8137
8209
8060
8263
8013
8317
8006
8307
8022
8249
8078
8178
8148
8122
8212
8084
8234
8100
8213
8136
8150
8198
8101
8246
8071
8232
8066
8187
8104
8111
8163
8027
8225
7986
8281
7985
8283
8028
8234
8076
8163
8129
8091
8144
8057
8135
8093
8127
8172
8080
8225
8019
8264
8001
8286
8054
8268
8139
8215
8215
8144
8277
8089
8301
8072
8270
8076
8200
8120
8137
8190
8107
8202
8088
8182
8128
8126
8191
8044
8241
7988
8293
7974
8277
7993
8226
8045
8163
8121
8089
8166
8061
8193
8077
8175
8113
8116
8169
8068
8231
8042
8234
8051
8199
8099
8135
8165
8058
8228
8001
8273
7988
8273
8021
8235
8078
8167
8120
8109
8162
8089
8167
8109
8131
8175
8088
8248
8048
8310
8039
8319
8049
8270
8101
8188
8164
8118
8221
8062
8252
8050
8250
8075
8190
8127
8137
8193
8095
8211
8089
8194
8124
8141
8186
8058
8239
7999
8296
7978
8300
8004
8249
8052
8181
8115
8105
8172
8076
8189
8078
8159
8118
8105
8160
8048
8225
8024
8244
8033
8212
8091
8157
8162
8085
8221
8019
8257
7988
8263
8012
8227
8065
8166
8129
8115
8165
8093
8183
8113
8135
8165
8082
8237
8034
8296
8003
8306
8023
8270
8070
8200
8139
8135
8209
8084
8245
8063
8238
8080
8185
8134
8125
8195
8082
8214
8067
8188
8094
8138
8157
8063
8232
8011
8294
7986
8294
8002
8261
8052
8206
8135
8156
8194
8108
8206
8106
8189
8144
8126
8196
8066
8255
8035
8272
8027
8230
8059
8166
8132
8091
8212
8042
8267
8034
8287
8047
8260
8105
8198
8170
8137
8193
8099
8187
8101
8140
8158
8083
8230
8020
8274
7986
8298
8008
8279
8053
8211
8133
8157
8191
8083
8230
8062
8227
8089
8167
8134
8113
8195
8078
8239
8058
8200
8077
8152
8149
8068
8204
7998
8257
7973
8273
7976
8244
8029
8196
8103
8146
8176
8117
8227
8132
8208
8166
8129
8193
8042
8240
8013
8278
8022
8250
8064
8207
8141
8129
8211
8062
8256
8023
8266
8049
8255
8103
8181
8146
8103
8173
8091
8200
8125
8178
8169
8097
8227
8037
8286
7993
8318
8016
8310
8065
8232
8119
8155
8174
8088
8206
8065
8205
8100
8160
8136
8104
8202
8068
8254
8079
8244
8093
8185
8156
8110
8214
8025
8266
7984
8279
7979
8237
8020
8181
8081
8117
8124
8062
8135
8056
8119
8095
8069
8153
8012
8217
7984
8253
7983
8241
8024
8186
8117
8127
8193
8066
8239
8041
8265
8060
8248
8109
8195
8187
8150
8237
8112
8220
8107
8156
8147
8091
8219
8029
8257
7980
8295
7985
8290
8043
8240
8129
8180
8187
8116
8218
8102
8247
8134
8198
8181
8105
8203
8038
8215
8023
8230
8077
8200
8143
8119
8197
8031
8242
7973
8245
7968
8232
8025
8192
8089
8129
8147
8105
8176
8099
8170
8137
8115
8201
8054
8275
8024
8300
8004
8271
8041
8218
8108
8148
8171
8065
8213
8035
8251
8059
8231
8101
8179
8164
8120
8206
8088
8224
8113
8185
8147
8100
8194
8006
8229
7947
8260
7950
8246
7996
8225
8087
8157
8149
8082
8175
8054
8157
8081
8134
8154
8109
8252
8073
8271
8030
8237
8044
8175
8093
8107
8185
8055
8275
8057
8336
8061
8313
8090
8227
8120
8145
8174
8122
8246
8172
8267
8229
8192
8238
8072
8274
8011
8297
7992
8278
8018
8226
8085
8140
8145
8076
8205
8045
8232
8078
8244
8132
8191
8190
8120
8236
8099
8237
8082
8176
8114
8080
8185
8046
8275
8006
8295
7965
8267
8008
8231
8065
8149
8124
8075
8141
8033
8113
8035
8078
8083
8024
8157
7988
8208
7987
8231
8029
8221
8133
8205
8255
8159
8332
8104
8331
8050
8277
8069
8212
8119
8187
8229
8160
8247
8131
8203
8159
8145
8206
8051
8249
8006
8301
8000
8303
8024
8247
8077
8169
8134
8076
8173
8039
8199
8040
8147
8064
8098
8128
8080
8227
8065
8210
8035
8152
8068
8100
8167
8039
8256
8016
8310
8010
8288
8004
8215
8050
8158
8108
8066
8106
8022
8116
8068
8140
8203
8139
8294
8082
8303
8037
8278
8010
8197
8064
8148
8147
8088
8230
8029
8231
7999
8242
8055
8225
8158
8213
8251
8166
8281
8181
8259
8199
8192
8238
8106
8278
8033
8326
8014
8314
8017
8247
8044
8165
8119
8077
8151
8022
8152
8029
8147
8088
8125
8156
8069
8221
8048
8237
8069
8230
8157
8187
8209
8113
8282
8047
8329
8042
8329
8060
8275
8098
8207
8156
8139
8190
8106
8171
8093
8118
8108
8010
8142
7972
8220
7949
8213
7958
8180
8016
8128
8089
8041
8145
7985
8196
8015
8249
8089
8257
8189
8201
8228
8136
8266
8146
8243
8157
8167
8208
8111
8275
8056
8361
8078
8403
8107
8329
8086
8237
8190
8210
8259
8167
8272
8125
8207
8112
8096
8125
8047
8184
7996
8191
7986
8161
8036
8123
8128
8057
8195
7988
8243
7976
8234
7950
8168
8000
8113
8074
8075
8129
8065
8155
8101
8156
8177
8117
8278
8107
8349
8054
8342
8055
8315
8127
8292
8242
8220
8266
8099
8245
8040
8233
8063
8165
8080
8083
8123
8026
8140
8021
8131
8025
8050
8071
8006
8184
7995
8279
8000
8333
8014
8248
8016
8169
8087
8133
8172
8080
8154
8041
8117
8052
8048
8103
7984
8132
7936
8181
7998
8212
8057
8142
8097
8054
8173
8014
8239
7996
8267
8037
8293
8150
8285
8238
8230
8302
8251
8341
8270
8327
8321
8248
8364
8163
8385
8095
8414
8124
8389
8152
8298
8198
8191
8209
8091
8230
8053
8195
8029
8115
8060
8063
8129
8057
8216
8080
8249
8133
8189
8181
8082
8193
7984
8199
7874
8158
7857
8101
7862
8004
7898
7962
8033
8029
8152
8076
8144
8078
8056
8111
8027
8210
8014
8289
8063
8323
8142
8289
8217
8209
8292
8165
8395
8196
8438
8169
8345
8130
8213
8170
8170
8254
8168
8273
8162
8198
8186
8117
8215
8028
8276
7996
8318
8012
8297
8034
8208
8053
8109
8143
8084
8245
8139
8310
8162
8274
8226
8204
8231
8065
8166
7979
8122
7981
8057
8011
7975
8072
7901
8138
7895
8200
7902
8180
7945
8104
7984
8043
8078
8070
8163
8077
8129
8072
8074
8170
8073
8253
8018
8280
8031
8326
8125
8311
8205
8222
8262
8179
8369
8169
8367
8123
8312
8141
8225
8155
8151
8235
8144
8268
8143
8172
8132
8077
8168
7992
8234
7976
8310
8009
8318
8037
8234
8070
8118
8083
8023
8123
8061
8246
8143
8226
8184
8124
8181
8007
8151
7967
8161
7979
8109
8043
8036
8135
8010
8239
8004
8326
8079
8370
8114
8286
8161
8217
8230
8208
8299
8207
8276
8237
8253
8317
8151
8302
8048
8295
8001
8262
8006
8183
8015
8053
8055
7972
8108
7956
8148
7976
8179
8086
8184
8137
8094
8112
7959
8034
7933
8074
8063
8100
8209
8088
8307
8036
8348
8035
8337
8046
8314
8175
8282
8267
8247
8319
8209
8297
8156
8198
8149
8107
8197
8041
8207
8000
8208
8007
8171
8072
8110
8154
8046
8212
7987
8270
8013
8279
8063
8244
8114
8191
8188
8136
8181
8080
8135
8078
8093
8162
8066
8252
8022
8286
7983
8282
8026
8280
8127
8212
8171
8124
8207
8049
8217
8043
8218
8083
8149
8104
8053
8135
8029
8186
8055
8162
8078
8100
8155
8021
8201
7948
8221
7897
8194
7939
8214
8050
8164
8112
8146
8228
8152
8258
8152
8205
8193
8139
8226
8057
8255
8015
8247
8033
8221
8105
8178
8168
8097
8226
8005
8217
7947
8165
7960
8164
8075
8132
8106
8050
8105
8023
8112
8044
8053
8106
8034
8229
8028
8326
8019
8315
8050
8350
8182
8344
8328
8325
8388
8242
8367
8205
8342
8240
8283
8225
8171
8289
8132
8288
8112
8231
8114
8147
8179
8110
8292
8084
8355
8039
8343
8059
8309
8104
8223
8140
8115
8143
8061
8122
8031
8101
8113
8081
8184
7971
8121
7867
8114
7908
8138
7963
8023
7984
8003
8167
8037
8257
7996
8194
7969
8128
8022
8087
8123
8104
8258
8218
8352
8301
8316
8282
8151
8306
8054
8285
7969
8276
7972
8229
8019
8164
8062
8077
8176
8113
8291
8197
8332
8255
8339
8352
8328
8446
8292
8441
8259
8408
8251
8283
8239
8152
8259
8029
8241
7937
8221
7946
8195
8007
8148
8063
8063
8092
8027
8116
8044
8089
8089
8051
8165
8005
8220
7978
8251
7974
8205
7997
8135
8058
8047
8115
7960
8140
7952
8167
7998
8139
8036
8090
8086
8035
8130
8067
8220
8145
8167
8144
8045
8193
8012
8290
7986
8297
7999
8294
8048
8209
8083
8117
8119
8021
8123
8005
8111
8048
8081
8069
7988
8094
7946
8150
7976
8181
8025
8120
8047
8049
8200
8063
8319
8068
8371
8128
8404
8218
8365
8259
8264
8280
8204
8278
8184
8234
8210
8136
8213
8019
8248
8002
8297
8014
8284
8048
8226
8154
8219
8282
8205
8348
8135
8295
8097
8264
8200
8290
8317
8232
8304
8162
8309
8187
8219
8179
8114
8199
8000
8232
7936
8250
7933
8217
7978
8176
8055
8128
8129
8078
8172
8050
8139
8083
8121
8141
8066
8201
8017
8226
7991
8215
8036
8184
8103
8103
8172
8027
8223
8000
8270
8017
8259
8032
8135
8037
8057
8093
8040
8139
8047
8100
8112
8141
8253
8087
8286
8011
8310
8011
8307
8055
8262
8131
8213
8232
8150
8223
8051
8229
8064
8168
8076
8107
8148
8084
8207
8048
8204
8068
8156
8093
8069
8182
8041
8269
8023
8333
8039
8368
8142
8376
8220
8276
8224
8144
8203
8116
8203
8116
8116
8120
8043
8214
8041
8275
8007
8203
7954
8110
8017
8101
8152
8026
8176
7971
8206
7948
8138
7946
8064
7986
8005
8067
8033
8157
8107
8232
8206
8157
8192
8030
8252
8044
8395
8121
8411
8126
8325
8115
8194
8178
8150
8241
8105
8251
8143
8294
8240
8317
8415
8337
8440
8236
8382
8212
8319
8203
8196
8264
8133
8294
8009
8288
7973
8266
7992
8196
8044
8123
8086
8059
8131
8052
8134
8088
8122
8151
8034
8172
7965
8180
7937
8198
7954
8169
8017
8083
8079
8005
8143
7983
8220
8023
8249
8079
8213
8142
8161
8203
8111
8217
8113
8204
8140
8139
8175
8037
8217
7960
8254
7950
8274
8010
8249
8050
8153
8083
8063
8133
7996
8096
7959
8054
8005
8030
8104
8024
8174
7984
8161
7955
8108
8006
8090
8153
8096
8295
8094
8382
8097
8387
8123
8349
8201
8315
8285
8271
8341
8274
8338
8261
8267
8246
8101
8217
7997
8251
7974
8245
7975
8203
8063
8228
8191
8145
8244
8088
8261
8064
8255
8087
8234
8199
8204
8261
8150
8243
8081
8178
8105
8134
8169
8025
8158
7875
8127
7860
8160
7881
8142
7953
8090
8020
8032
8104
8043
8178
8126
8263
8243
8271
8355
8252
8432
8259
8447
8192
8337
8177
8246
8237
8165
8287
8071
8293
7990
8237
7971
8151
7993
8090
8035
8023
8085
8008
8084
8023
8049
8072
7983
8107
7907
8154
7886
8184
7907
8162
7952
8127
8137
8172
8262
8178
8376
8222
8371
8189
8261
8149
8114
8188
8131
8319
8170
8284
8171
8213
8218
8133
8282
8066
8374
8097
8413
8101
8344
8100
8231
8115
8098
8117
8046
8122
8034
8076
8003
7979
8042
7936
8148
7999
8294
8085
8316
8160
8262
8199
8152
8236
8045
8248
8031
8302
8083
8302
8103
8154
8109
8073
8099
8014
8130
8101
8180
8217
8155
8275
8040
8263
7953
8271
7993
8249
7999
8183
8093
8120
8168
8073
8202
8036
8172
8052
8145
8126
8117
8204
8085
8245
8055
8181
8045
8121
8122
8088
8221
8030
8287
8006
8313
7987
8256
8056
8208
8128
8088
8021
7947
8017
7902
7934
7881
7882
7984
7901
8143
7993
8348
8209
8539
8422
8606
8578
8636
8686
8476
8584
8356
8559
8328
8471
8292
8324
8233
8167
8211
8084
8159
8078
8125
8100
8028
8135
7939
8176
7893
8203
7906
8212
7982
8161
8037
8082
8089
8001
8087
7946
8054
7948
8018
7968
7934
8041
7922
8096
7957
8192
8079
8169
8154
8159
8275
8121
8352
8104
8411
8118
8384
8176
8325
8189
8235
8245
8180
8239
8110
8126
8060
8031
8089
7958
8136
7914
8206
7960
8232
8012
8190
8096
8127
8170
8050
8201
8000
8192
7972
8130
8016
8097
8040
7962
8023
7946
8081
7949
7980
7952
7927
8070
7936
8178
7917
8256
7968
8297
8064
8341
8281
8410
8431
8424
8531
8387
8440
8296
8316
8272
8162
8215
8034
8196
8014
8260
8126
8233
8119
8111
8191
8101
8319
8070
8344
8023
8249
8011
8200
8138
8224
8205
8093
8125
8021
8079
8056
8052
8151
8038
8274
8064
8358
8036
8312
8047
8228
8080
8151
8187
8146
8304
8103
8270
8041
8189
8051
8074
8048
7967
8013
7867
7985
7875
7992
7956
7950
8071
7995
8250
8010
8353
8044
8331
8054
8311
8204
8357
8354
8334
8388
8268
8343
8222
8245
8212
8179
8329
8166
8365
8141
8415
8227
8397
8257
8244
8233
8107
8230
7980
8227
7984
8228
8003
8197
8086
8090
8043
7991
8081
8025
8132
8116
8107
8165
8031
8217
7975
8254
7933
8241
7999
8243
8074
8197
8178
8171
8273
8117
8243
8078
8186
8050
8071
8044
7975
8061
7931
8073
7942
8092
8049
8095
8153
8040
8252
8024
8330
8023
8321
8039
8277
8075
8175
8092
8082
8141
8042
8106
8020
8066
8057
7993
8094
7939
8173
7982
8256
8051
8311
8198
8270
8255
8170
8274
8119
8401
8209
8435
8217
8361
8195
8163
8133
8068
8133
8027
8099
8010
8010
8069
8002
8208
8004
8280
7967
8298
8038
8358
8237
8385
8285
8267
8373
8285
8388
8178
8247
8093
8110
8084
8005
8119
8004
8230
8081
8222
8111
8166
8219
8137
8247
8002
8269
7978
8290
8025
8265
8051
8130
8039
8022
8052
7963
8048
7988
8029
8057
8052
8208
8092
8374
8156
8451
8207
8394
8203
8275
8199
8149
8215
8052
8233
8038
8278
8076
8228
8092
8102
8096
8026
8132
8039
8176
8125
8198
8230
8130
8258
8022
8276
7975
8295
8003
8302
8085
8266
8191
8202
8218
8105
8185
8022
8117
8057
8127
8161
8092
8237
8042
8217
8036
8227
8064
8132
8092
7991
8097
7896
8119
7862
8135
7892
8138
7988
8149
8102
8105
8192
8166
8283
8201
8277
8310
8267
8385
8175
8350
8033
8275
7960
8181
7974
8124
8072
8097
8174
8038
8206
8029
8267
8111
8275
8191
8220
8246
8164
8306
8196
8322
8234
8289
8299
8215
8359
8122
8387
8085
8387
8058
8301
8031
8193
8085
8128
8140
8051
8126
8015
8094
7998
7986
8002
7918
8044
7875
8076
7866
8030
7861
7987
7992
8020
8178
8051
8331
8094
8384
8143
8348
8128
8233
8192
8284
8375
8318
8386
8286
8301
8259
8181
8256
8054
8278
7994
8272
7962
8206
7964
8137
8046
8069
8125
8034
8197
8064
8288
8123
8247
8151
8192
8248
8143
8259
8088
8221
8090
8165
8130
8042
8142
7925
8159
7880
8217
7933
8228
8001
8179
8054
8123
8122
8088
8196
8118
8244
8236
8279
8298
8159
8297
8071
8288
8044
8277
8089
8222
8160
8171
8238
8081
8253
8003
8228
7966
8160
7993
8104
8057
8067
8100
8019
8108
8038
8137
8161
8174
8317
8133
8340
8050
8351
8039
8331
8071
8266
8147
8218
8221
8151
8250
8094
8232
8086
8197
8133
8145
8199
8069
8197
8036
8190
8030
8122
8064
8052
8166
8007
8243
7996
8293
7998
8277
8028
8252
8192
8299
8268
8211
8264
8134
8197
8121
8120
8138
8031
8192
7983
8212
7955
8208
7978
8158
8037
8086
8134
8041
8213
8031
8275
8054
8273
8100
8220
8157
8158
8192
8088
8169
8060
8123
8091
8075
8172
8023
8246
8004
8338
8062
8377
8105
8340
8166
8237
8185
8100
8156
8007
8140
8028
8118
8069
8081
8149
8060
8253
8093
8304
8142
8281
8226
8278
8343
8186
8358
8096
8366
8050
8310
8045
8230
8069
8148
8121
8100
8186
8103
8187
8112
8107
8128
8026
8173
7964
8231
7948
8211
7954
8150
7996
8084
8092
8034
8161
7992
8226
8066
8279
8136
8277
8200
8180
8240
8143
8266
8125
8209
8153
8136
8193
8066
8259
7997
8287
7968
8284
7997
8226
8048
8166
8121
8094
8168
8050
8154
8065
8147
8093
8082
8153
8022
8159
7987
8225
8038
8210
8126
8195
8214
8098
8246
8023
8274
7998
8271
8022
8221
8070
8154
8129
8121
8188
8059
8103
8026
8063
8137
8089
8296
8106
8385
8112
8402
8101
8324
8157
8252
8202
8159
8241
8103
8296
8114
8309
8163
8262
8212
8168
8236
8113
8243
8078
8184
8098
8141
8196
8107
8286
8042
8321
7995
8296
7986
8232
8048
8191
8125
8105
8149
8054
8150
8061
8139
8110
8085
8147
8013
8193
8007
8237
8016
8216
8088
8175
8170
8102
8217
8025
8250
8004
8259
8016
8216
8075
8148
8131
8103
8172
8090
8185
8120
8148
8174
8073
8221
8000
8259
7972
8274
7985
8227
8024
8171
8120
8135
8205
8083
8233
8065
8239
8116
8209
8185
8142
8210
8079
8216
8061
8211
8126
8185
8175
8080
8252
8045
8317
8006
8303
8010
8258
8053
8197
8109
8126
8169
8107
8209
8115
8183
8132
8091
8171
8031
8239
8016
8283
8041
8255
8075
8195
8149
8122
8216
8054
8284
8059
8318
8102
8285
8132
8193
8155
8123
8184
8086
8184
8085
8105
8123
8033
8169
7966
8206
7922
8240
7943
8224
8000
8174
8074
8108
8154
8071
8213
8093
8260
8143
8222
8206
8168
8258
8105
8264
8067
8208
8065
8153
8148
8086
8205
8020
8287
7978
8246
7959
8213
8004
8155
8081
8182
8280
8230
8286
8174
8227
8209
8194
8279
8109
8301
8047
8313
8070
8356
8179
8329
8226
8199
8248
8114
8275
8053
8268
8061
8244
8104
8176
8144
8078
8137
8025
8118
8042
8090
8094
8039
8161
7965
8212
7932
8244
7936
8242
8026
8248
8173
8241
8270
8190
8285
8143
8263
8142
8200
8188
8131
8237
8070
8252
8051
8230
8053
8149
8085
8042
8146
7986
8209
7950
8222
7949
8200
7998
8165
8085
8130
8155
8110
8179
8102
8184
8176
8160
8250
8105
8309
8053
8329
8039
8298
8056
8235
8126
8158
8180
8064
8222
8048
8251
8064
8215
8101
8179
8182
8130
8227
8096
8224
8117
8189
8165
8118
8214
8036
8281
7992
8296
7978
8278
8024
8237
8096
8162
8158
8101
8195
8077
8184
8100
8142
8143
8090
8203
8033
8244
8019
8228
8055
8193
8123
8127
8211
8068
8273
8017
8268
7982
8219
8011
8163
8069
8105
8119
8057
8142
8069
8137
8110
8098
8182
8041
8265
8020
8289
7980
8238
7988
8185
8065
8132
8136
8054
8191
8039
8215
8050
8207
8120
8192
8220
8174
8299
8163
8314
8169
8264
8225
8188
8250
8059
8261
7972
8218
7858
8106
7839
8038
7907
7996
7984
7981
8089
8032
8146
8110
8200
8250
8217
8380
8251
8471
8269
8499
8328
8492
8364
8354
8342
8209
8350
8134
8381
8120
8339
8097
8215
8092
8073
8051
7958
8013
7886
7933
7888
7882
7956
7848
8085
7878
8186
7938
8254
8013
8270
8154
8270
8261
8204
8275
8121
8274
8112
8238
8133
8180
8217
8147
8277
8110
8287
8149
8282
8226
8240
8283
8134
8319
8060
8369
8097
8418
8147
8356
8161
8239
8208
8181
8225
8130
8229
8134
8172
8184
8112
8261
8061
8285
8019
8257
8014
8213
8093
8182
8199
8135
8276
8076
8309
8064
8266
8050
8168
8065
8080
8098
8031
8122
8012
8095
8051
8058
8121
7989
8185
7949
8245
7944
8257
7961
8198
8018
8131
8083
8063
8147
8029
8157
8037
8139
8074
8099
8135
8052
8185
8016
8190
8015
8168
8067
8098
8133
8015
8194
7970
8260
7973
8263
8005
8222
8061
8178
8153
8140
8205
8115
8176
8085
8125
8142
8069
8215
8026
8266
7993
8276
8017
8236
8072
8179
8154
8102
8208
8037
8249
8055
8260
8076
8205
8129
8150
8191
8103
8204
8088
8198
8141
8160
8204
8087
8266
8021
8301
7989
8294
8000
8246
8027
8168
8108
8100
8165
8076
8196
8083
8196
8131
8151
8207
8106
8274
8086
8298
8092
8256
8132
8189
8194
8120
8258
8053
8310
8024
8297
8036
8258
8080
8187
8143
8140
8196
8116
8201
8127
8170
8186
8110
8256
8061
8300
8020
8316
8029
8267
8076
8205
8140
8132
8218
8074
8242
8051
8244
8078
8198
8131
8150
8219
8117
8246
8107
8238
8143
8175
8192
8102
8252
8032
8304
7996
8310
8006
8269
8057
8214
8130
8153
8181
8100
8198
8091
8178
8139
8146
8196
8083
8246
8038
8266
8043
8241
8092
8180
8153
8102
8218
8034
8260
8014
8287
8035
8257
8087
8193
8136
8122
8171
8087
8171
8100
8148
8162
8093
8231
8035
8280
7988
8283
7984
8241
8024
8186
8106
8124
8180
8070
8214
8038
8198
8040
8137
8087
8081
8138
8035
8155
8018
8157
8056
8138
8154
8111
8254
8061
8337
8063
8393
8100
8386
8173
8342
8233
8251
8243
8149
8225
8120
8195
8137
8133
8199
8075
8256
8028
8260
8013
8240
8061
8191
8130
8119
8203
8047
8239
8014
8263
8021
8218
8065
8165
8108
8110
8151
8058
8143
8071
8135
8125
8066
8199
8018
8267
7979
8289
7984
8265
8024
8214
8120
8175
8176
8075
8195
8039
8185
8075
8156
8118
8108
8194
8082
8256
8085
8255
8141
8237
8200
8154
8241
8056
8281
8008
8303
8004
8282
8043
8220
8105
8161
8164
8111
8198
8107
8186
8150
8160
8213
8073
8258
8013
8275
8011
8250
8032
8191
8090
8120
8172
8052
8218
8010
8250
8035
8241
8082
8178
8140
8127
8168
8076
8191
8086
8148
8134
8091
8210
8031
8255
7992
8300
7980
8275
8017
8226
8079
8153
8152
8089
8193
8072
8197
8086
8161
8136
8111
8203
8072
8261
8067
8248
8082
8195
8136
8126
8198
8041
8249
7990
8277
7986
8258
8023
8208
8087
8152
8156
8099
8172
8100
8182
8147
8151
8222
8101
8303
8067
8345
8055
8332
8086
8263
8130
8169
8184
8102
8245
8060
8265
8060
8238
8086
8159
8135
8107
8180
8068
8178
8077
8163
8125
8093
8191
8025
8251
7993
8297
7992
8307
8029
8260
8120
8208
8201
8174
8255
8138
8252
8131
8196
8176
8120
8236
8087
8285
8077
8282
8074
8214
8113
8128
8177
8042
8242
8017
8291
8017
8281
8051
8230
8100
8159
8141
8093
8154
8067
8137
8097
8098
8165
8044
8225
8003
8278
7982
8280
8015
8227
8077
8168
8149
8081
8184
8030
8217
8034
8190
8069
8122
8100
8060
8148
8038
8173
8054
8178
8142
8138
8203
8074
8299
8033
8330
8027
8319
8033
8250
8075
8182
8147
8118
8187
8086
8186
8114
8186
8170
8104
8198
8039
8247
8012
8252
8054
8250
8143
8198
8224
8136
8294
8082
8332
8066
8303
8077
8264
8124
8175
8157
8108
8170
8088
8173
8115
8136
8185
8068
8245
8018
8309
8018
8322
8035
8276
8100
8208
8162
8135
8215
8084
8222
8051
8203
8093
8147
8155
8097
8190
8058
8214
8059
8190
8103
8123
8151
8035
8220
7992
8286
7991
8299
8023
8261
8081
8211
8155
8150
8202
8120
8217
8128
8166
8147
8083
8186
8012
8232
7988
8238
8003
8222
8061
8159
8141
8088
8211
8037
8253
8023
8256
8041
8217
8101
8145
8142
8084
8164
8077
8185
8110
8131
8158
8054
8217
7989
8267
7968
8288
8002
8266
8067
8222
8161
8172
8210
8102
8233
8093
8226
8118
8164
8176
8089
8205
8055
8239
8063
8223
8114
8174
8175
8094
8236
8016
8278
7993
8282
8006
8247
8054
8179
8107
8121
8177
8112
8207
8125
8195
8199
8156
8253
8091
8300
8018
8271
7997
8240
8044
8176
8119
8110
8202
8064
8241
8028
8245
8041
8188
8075
8136
8157
8114
8242
8132
8235
8132
8163
8175
8087
8235
8035
8314
8023
8353
8038
8316
8070
8223
8120
8150
8181
8095
8210
8093
8222
8126
8157
8185
8107
8256
8085
8299
8089
8265
8109
8194
8163
8120
8229
8048
8279
8011
8289
8010
8254
8052
8188
8102
8123
8151
8091
8174
8104
8160
8146
8089
8210
8039
8264
7987
8283
8006
8256
8043
8216
8127
8145
8195
8077
8234
8042
8240
8064
8206
8118
8177
8195
8106
8209
8082
8224
8116
8184
8163
8088
8209
8001
8254
7966
8272
7950
8223
7983
8193
8084
8148
8156
8117
8223
8106
8213
8144
8178
8207
8120
8264
8077
8297
8060
8253
8055
8185
8120
8115
8200
8050
8259
8015
8293
8044
8297
8103
8229
8134
8146
8184
8111
8178
8087
8156
8152
8113
8220
8060
8279
7997
8284
7975
8250
8002
8207
8089
8161
8171
8088
8215
8048
8222
8064
8179
8100
8136
8164
8075
8210
8073
8219
8082
8178
8143
8121
8208
8042
8266
7998
8297
7980
8283
8029
8231
8094
8172
8163
8118
8214
8118
8213
8140
8170
8195
8105
8251
8050
8281
8033
8269
8061
8221
8118
8149
8183
8071
8248
8033
8279
8022
8250
8051
8187
8112
8123
8157
8097
8197
8108
8194
8175
8165
8253
8097
8299
8037
8321
7994
8286
8001
8224
8066
8153
8146
8110
8205
8073
8243
8097
8205
8127
8135
8181
8068
8209
8034
8201
8052
8184
8118
8122
8185
8041
8246
7992
8288
7986
8271
8004
8223
8075
8161
8144
8111
8188
8107
8182
8119
8143
8199
8117
8278
8066
8285
8017
8268
8027
8216
8069
8138
8145
8081
8219
8038
8268
8045
8259
8074
8215
8152
8158
8207
8111
8212
8098
8195
8156
8158
8218
8083
8267
7999
8292
7985
8308
8034
8282
8106
8202
8163
8145
8221
8098
8223
8089
8179
8122
8129
8187
8076
8239
8051
8236
8056
8204
8106
8142
8178
8069
8254
8019
8296
7998
8280
8016
8222
8074
8171
8152
8116
8185
8102
8187
8112
8123
8167
8078
8230
8034
8288
7995
8282
8012
8234
8084
8179
8160
8118
8232
8066
8247
8041
8242
8077
8187
8122
8138
8178
8081
8193
8077
8184
8126
8140
8188
8070
8255
8005
8298
7983
8300
8011
8261
8064
8184
8122
8136
8192
8098
8211
8093
8173
8140
8140
8201
8079
8250
8033
8241
8037
8221
8096
8167
8185
8108
8242
8031
8289
8012
8283
8038
8234
8085
8185
8159
8134
8201
8115
8189
8112
8117
8143
8048
8212
8003
8273
7991
8296
8024
8273
8087
8218
8163
8140
8213
8072
8244
8072
8249
8104
8212
8161
8148
8206
8085
8219
8082
8212
8135
8171
8195
8080
8257
8027
8295
7986
8297
7994
8253
8052
8202
8126
8137
8171
8088
8188
8086
8169
8134
8129
8198
8061
8237
8010
8244
8030
8229
8074
8177
8158
8112
8232
8055
8274
8021
8283
8041
8231
8079
8174
8138
8120
8174
8097
8186
8109
8148
8176
8097
8252
8039
8307
8016
8322
8024
8272
8060
8217
8130
8130
8197
8086
8232
8075
8235
8081
8159
8126
8110
8205
8086
8230
8062
8215
8095
8158
8167
8099
8228
8031
8294
7995
8306
8005
8270
8047
8205
8108
8146
8167
8106
8198
8105
8182
8148
8122
8205
8058
8249
8012
8268
8015
8245
8063
8192
8140
8122
8201
8040
8248
8027
8270
8040
8230
8100
8182
8160
8139
8207
8101
8194
8092
8134
8134
8064
8199
7993
8256
7971
8286
7986
8262
8019
8194
8102
8148
8184
8097
8213
8072
8210
8095
8183
8153
8115
8207
8074
8255
8075
8253
8121
8200
8164
8120
8217
8014
8246
7982
8292
8009
8286
8058
8229
8137
8167
8171
8092
8170
8095
8163
8141
8120
8217
8074
8280
8036
8303
8027
8282
8067
8221
8139
8149
8190
8061
8236
8036
8262
8048
8224
8092
8175
8151
8112
8187
8088
8205
8106
8171
8164
8117
8232
8051
8309
8016
8315
8001
8304
8046
8232
8100
8156
8163
8093
8191
8068
8189
8098
8162
8155
8102
8203
8045
8246
8047
8231
8067
8186
8136
8120
8211
8055
8264
8011
8290
8004
8268
8046
8211
8118
8163
8172
8118
8221
8126
8202
8167
8116
8204
8054
8263
8014
8290
7998
8264
8031
8217
8100
8140
8166
8068
8211
8032
8225
8044
8204
8091
8157
8161
8122
8215
8092
8219
8100
8185
8163
8137
8238
8061
8300
8018
8323
8003
8297
8026
8227
8087
8183
8174
8120
8208
8091
8189
8096
8130
8125
8071
8194
8033
8240
8026
8247
8052
8200
8125
8132
8182
8055
8253
8014
8280
8015
8267
8050
8222
8116
8146
8159
8108
8192
8119
8196
8164
8150
8229
8085
8292
8023
8307
7997
8296
8030
8245
8109
8181
8181
8114
8216
8059
8233
8062
8206
8101
8150
8161
8107
8219
8078
8229
8092
8205
8145
8126
8196
8041
8259
7998
8301
7994
8298
8026
8242
8081
8175
8151
8124
8196
8100
8189
8115
8152
8155
8097
8224
8048
8272
8028
8264
8052
8228
8110
8146
8163
8060
8219
8009
8249
8001
8238
8032
8203
8108
8135
8154
8102
8198
8101
8180
8136
8127
8189
8043
8247
8002
8302
8000
8310
8027
8253
8102
8195
8162
8123
8214
8083
8238
8089
8224
8115
8136
8148
8083
8221
8075
8244
8081
8204
8129
8139
8194
8061
8253
8005
8301
7999
8299
8033
8252
8077
8193
8151
8121
8189
8101
8184
8114
8148
8168
8096
8232
8047
8277
8014
8277
8034
8227
8089
8161
8155
8091
8222
8037
8256
8034
8267
8073
8217
8122
8150
8172
8107
8213
8108
8194
8137
8139
8200
8066
8246
8011
8303
7994
8300
8004
8254
8059
8185
8130
8120
8185
8084
8214
8080
8198
8122
8147
8185
8089
8241
8068
8248
8066
8199
8103
8147
8165
8063
8229
8012
8285
7998
8299
8031
8254
8087
8187
8154
8116
8176
8096
8179
8123
8164
8176
8084
8226
8045
8286
8016
8295
8042
8260
8097
8187
8155
8108
8214
8039
8230
8020
8229
8055
8197
8113
8122
8158
8078
8189
8092
8216
8143
8162
8208
8083
8255
8018
8301
7983
8300
8000
8268
8071
8204
8135
8140
8194
8094
8211
8084
8185
8126
8130
8182
8094
8256
8056
8257
8043
8220
8092
8165
8169
8094
8237
8035
8293
8016
8303
8045
8266
8087
8196
8138
8121
8172
8099
8184
8107
8137
8167
8088
8226
8041
8290
8010
8298
8015
8255
8062
8200
8136
8128
8208
8067
8240
8045
8233
8068
8191
8124
8141
8198
8104
8238
8087
8205
8104
8138
8167
8081
8238
8015
8295
7983
8299
7999
8261
8053
8218
8135
8151
8191
8098
8210
8101
8195
8130
8133
8191
8072
8242
8035
8265
8031
8234
8073
8180
8151
8111
8225
8042
8272
8015
8289
8040
8262
8091
8192
8132
8127
8188
8103
8198
8120
8166
8181
8102
8239
8041
8289
7995
8292
7995
8250
8036
8201
8132
8155
8201
8094
8247
8080
8240
8079
8189
8135
8123
8183
8090
8215
8057
8192
8084
8161
8167
8096
8238
8032
8296
8004
8309
8008
8284
8042
8214
8120
8147
8179
8105
8199
8116
8195
8141
8133
8199
8074
8248
8024
8271
8022
8243
8057
8188
8133
8121
8204
8050
8252
8019
8272
8032
8247
8088
8189
8140
8115
8167
8094
8191
8104
8158
8164
8098
8228
8042
8284
8000
8309
8005
8299
8044
8229
8114
8149
8168
8074
8203
8057
8203
8074
8157
8119
8107
8182
8079
8243
8066
8224
8081
8177
8152
8116
8229
8046
8278
8008
8300
8003
8291
8049
8228
8135
8171
8172
8113
8205
8113
8187
8142
8136
8196
8067
8252
8015
8271
8007
8255
8042
8199
8109
8134
8187
8068
8244
8039
8271
8048
8241
8084
8186
8142
8113
8169
8088
8200
8101
8175
8149
8101
8218
8037
8283
7994
8305
7999
8300
8034
8243
8105
8168
8166
8106
8212
8083
8211
8093
8183
8141
8113
8199
8070
8251
8064
8250
8083
8209
8152
8141
8216
8066
8274
8017
8307
8021
8286
8048
8222
8096
8157
8165
8112
8185
8097
8178
8133
8123
8196
8072
8258
8017
8291
8006
8274
8031
8225
8102
8159
8169
8080
8226
8051
8261
8041
8228
8083
8161
8136
8107
8179
8090
8205
8087
8177
8147
8125
8217
8053
8288
8013
8322
8000
8305
8035
8252
8088
8188
8157
8118
8208
8101
8209
8108
8171
8142
8111
8206
8059
8253
8040
8257
8069
8218
8128
8156
8188
8063
8238
8003
8265
7982
8258
8041
8225
8103
8167
8152
8113
8187
8113
8198
8150
8150
8213
8087
8276
8027
8297
7993
8283
8018
8239
8086
8175
8167
8114
8215
8046
8219
8045
8206
8086
8176
8145
8106
8190
8078
8209
8076
8193
8130
8135
8200
8060
8262
8015
8311
7999
8311
8024
8258
8077
8197
8147
8124
8193
8097
8203
8109
8161
8149
8114
8223
8067
8273
8040
8280
8050
8234
8114
8182
8193
8118
8259
8033
8272
8012
8258
8030
8212
8092
8148
8148
8094
8166
8076
8166
8107
8131
8183
8073
8246
8029
8306
8005
8316
8026
8269
8079
8203
8154
8141
8218
8084
8237
8075
8227
8107
8161
8151
8108
8224
8066
8221
8067
8196
8111
8147
8179
8073
8251
8009
8298
7994
8295
8012
8255
8067
8182
8122
8130
8179
8087
8184
8108
8151
8150
8106
8225
8060
8265
8019
8280
8028
8242
8091
8183
8160
8103
8223
8044
8253
8020
8265
8058
8219
8105
8156
8160
8104
8183
8095
8203
8147
8164
8193
8079
8239
8016
8294
7994
8306
8012
8269
8061
8198
8119
8124
8179
8074
8211
8074
8194
8101
8141
8145
8083
8194
8066
8243
8065
8233
8118
8169
8173
8095
8252
8038
8300
8007
8307
8029
8270
8068
8201
8144
8135
8186
8110
8187
8114
8172
8164
8095
8204
8033
8263
8012
8289
8023
8252
8065
8193
8146
8127
8208
8051
8247
8031
8251
8051
8214
8117
8159
8172
8112
8228
8108
8210
8099
8129
8147
8073
8240
8027
8301
7988
8310
7996
8266
8045
8218
8136
8166
8201
8106
8213
8081
8202
8123
8147
8150
8074
8208
8043
8236
8041
8226
8077
8180
8160
8116
8238
8042
8292
8012
8293
8022
8269
8059
8192
8127
8131
8172
8095
8179
8104
8145
8158
8101
8214
8051
8277
8002
8295
8015
8277
8060
8218
8139
8150
8208
8086
8242
8052
8247
8070
8210
8118
8150
8168
8105
8225
8080
8210
8111
8170
8162
8085
8227
8020
8284
7993
8314
8007
8299
8051
8233
8124
8155
8165
8091
8192
8074
8173
8112
8135
8173
8080
8221
8041
8264
8042
8239
8067
8194
8141
8125
8210
8049
8262
8018
8281
8023
8259
8065
8196
8118
8131
8183
8101
8181
8108
8170
8161
8107
8221
8048
8280
8011
8314
8003
8285
8047
8223
8118
8152
8178
8083
8224
8059
8249
8089
8214
8133
8157
8193
8100
8230
8076
8217
8092
8170
8143
8106
8215
8037
8276
7996
8305
7999
8289
8038
8232
8106
8174
8171
8113
8186
8078
8165
8113
8139
8182
8079
8242
8041
8277
8027
8254
8047
8205
8124
8135
8194
8065
8253
8030
8280
8031
8257
8071
8191
8120
8124
8164
8094
8191
8101
8173
8149
8112
8214
8053
8290
8004
8306
8001
8286
8022
8229
8095
8165
8164
8110
8218
8078
8244
8092
8209
8128
8133
8191
8086
8228
8051
8220
8073
8193
8142
8133
8211
8057
8279
8013
8312
8006
8291
8037
8235
8096
8177
8160
8115
8190
8104
8179
8120
8139
8182
8087
8251
8036
8279
8014
8260
8023
8208
8092
8153
8168
8089
8231
8035
8261
8033
8245
8070
8193
8128
8133
8180
8102
8207
8107
8196
8155
8136
8221
8070
8268
8009
8314
7997
8309
8032
8255
8076
8170
8133
8093
8186
8080
8220
8097
8195
8129
8127
8190
8075
8243
8059
8244
8070
8211
8124
8150
8193
8061
8252
8024
8304
8013
8296
8030
8236
8086
8177
8150
8120
8195
8108
8191
8126
8135
8179
8079
8243
8026
8282
8003
8289
8031
8249
8091
8175
8151
8103
8218
8048
8243
8047
8244
8084
8204
8144
8139
8172
8078
8197
8074
8183
8128
8142
8195
8070
8256
8006
8301
7986
8298
8007
8255
8062
8196
8142
8132
8192
8095
8204
8089
8170
8134
8131
8200
8077
8254
8040
8248
8050
8220
8108
8163
8179
8096
8250
8035
8296
8026
8304
8054
8258
8077
8165
8123
8097
8164
8087
8180
8114
8135
8179
8082
8239
8027
8290
8003
8297
8018
8253
8067
8191
8142
8129
8212
8077
8247
8077
8260
8103
8195
8138
8121
8192
8077
8215
8086
8199
8120
8161
8187
8082
8254
8018
8288
7973
8296
8000
8270
8071
8207
8131
8118
8172
8079
8178
8082
8157
8120
8106
8188
8063
8248
8032
8276
8042
8243
8094
8182
8162
8110
8229
8049
8286
8026
8286
8050
8252
8096
8192
8165
8135
8201
8111
8201
8121
8152
8175
8085
8237
8035
8300
8003
8305
8009
8270
8051
8204
8126
8134
8188
8069
8228
8073
8228
8088
8185
8146
8118
8201
8084
8245
8082
8224
8124
8179
8172
8097
8221
8011
8277
7980
8290
8001
8274
8048
8203
8109
8145
8176
8108
8200
8107
8170
8137
8119
8201
8066
8264
8023
8279
8016
8241
8063
8194
8142
8132
8213
8059
8260
8028
8274
8048
8252
8099
8177
8148
8120
8184
8089
8186
8101
8159
8164
8095
8230
8035
8296
7995
8315
7998
8273
8044
8230
8121
8162
8191
8102
8220
8080
8215
8096
8171
8145
8112
8209
8073
8249
8054
8226
8084
8179
8154
8110
8221
8041
8269
8004
8299
8006
8273
8046
8208
8102
8155
8187
8112
8184
8100
8177
8143
8128
8212
8064
8259
8000
8275
8003
8262
8058
8222
8128
8153
8190
8062
8233
8043
8264
8056
8241
8103
8182
8158
8126
8204
8091
8202
8096
8170
8156
8112
8220
8040
8289
7996
8306
7992
8293
8032
8230
8086
8159
8158
8102
8204
8081
8204
8105
8154
8146
8100
8210
8064
8259
8055
8248
8077
8200
8136
8124
8203
8063
8272
8028
8313
8024
8284
8050
8202
8099
8160
8173
8112
8185
8105
8184
8156
8146
8216
8067
8270
8023
8307
8015
8292
8040
8241
8107
8166
8176
8102
8232
8052
8253
8065
8228
8092
8154
8148
8106
8186
8071
8203
8089
8185
8145
8131
8215
8055
8269
7994
8305
7989
8302
8024
8242
8086
8177
8148
8116
8190
8086
8185
8102
8152
8148
8100
8214
8060
8271
8033
8257
8046
8210
8107
8141
8197
8076
8263
8036
8293
8026
8279
8053
8218
8108
8146
8148
8105
8189
8109
8188
8129
8111
8191
8067
8272
8021
8307
7998
8298
8024
8249
8097
8187
8165
8111
8218
8071
8237
8069
8225
8108
8160
8161
8108
8228
8082
8237
8086
8203
8136
8142
8184
8046
8248
8002
8300
7991
8303
8023
8254
8084
8195
8146
8127
8189
8096
8184
8114
8152
8151
8088
8206
8033
8263
8017
8250
8019
8218
8092
8167
8172
8098
8242
8049
8281
8029
8266
8055
8220
8113
8173
8158
8091
8162
8074
8166
8104
8130
8179
8064
8250
8023
8318
8007
8316
8029
8273
8075
8216
8168
8149
8217
8096
8232
8085
8221
8102
8133
8142
8076
8185
8046
8227
8059
8207
8108
8146
8168
8069
8251
8017
8303
8015
8323
8044
8286
8105
8229
8181
8190
8239
8146
8225
8130
8158
8165
8101
8207
8025
8266
7996
8267
8009
8233
8060
8174
8144
8111
8216
8045
8242
8034
8243
8047
8202
8087
8116
8129
8067
8161
8065
8178
8104
8142
8178
8085
8259
8033
8305
7996
8314
8006
8265
8066
8225
8151
8156
8206
8104
8219
8084
8211
8128
8158
8189
8103
8244
8068
8269
8068
8244
8121
8192
8188
8125
8256
8051
8297
8012
8298
8021
8259
8059
8179
8106
8109
8147
8079
8169
8104
8149
8153
8088
8210
8033
8278
8004
8302
8026
8277
8063
8190
8118
8097
8177
8055
8233
8046
8247
8062
8211
8120
8145
8169
8100
8208
8078
8201
8102
8159
8166
8088
8246
8047
8315
8007
8332
8025
8297
8060
8227
8130
8163
8187
8108
8210
8101
8190
8113
8136
8155
8078
8218
8039
8259
8055
8244
8073
8180
8150
8117
8238
8074
8311
8048
8318
8051
8285
8077
8197
8134
8147
8203
8126
8212
8109
8168
8153
8089
8200
8019
8242
7960
8259
7960
8229
8009
8181
8099
8140
8195
8087
8241
8069
8252
8091
8217
8124
8136
8174
8099
8240
8096
8227
8091
8158
8141
8091
8222
8030
8296
8004
8318
8028
8328
8095
8275
8134
8167
8162
8094
8184
8069
8140
8082
8095
8138
8063
8243
8053
8292
8056
8279
8067
8179
8088
8064
8145
8018
8231
8009
8278
8034
8280
8111
8234
8169
8154
8189
8100
8190
8087
8136
8140
8092
8209
8053
8296
8025
8339
8039
8330
8058
8242
8108
8160
8172
8084
8212
8067
8239
8092
8208
8138
8152
8207
8106
8255
8081
8236
8097
8198
8165
8121
8208
8020
8237
7960
8261
7955
8238
8004
8206
8088
8183
8183
8129
8189
8089
8172
8125
8137
8194
8083
8255
8033
8279
8017
8262
8033
8201
8102
8134
8169
8067
8248
8057
8307
8074
8267
8083
8191
8127
8136
8206
8110
8196
8086
8169
8144
8122
8203
8056
8288
8003
8297
7971
8273
8010
8233
8072
8160
8159
8103
8196
8059
8185
8046
8141
8095
8109
8167
8067
8237
8058
8250
8079
8189
8117
8118
8175
8025
8218
7971
8238
7953
8224
7991
8196
8058
8153
8140
8128
8230
8164
8284
8231
8256
8306
8191
8362
8131
8389
8088
8346
8096
8284
8138
8204
8208
8150
8274
8093
8311
8095
8301
8136
8241
8152
8126
8167
8065
8165
8060
8164
8134
8114
8171
8027
8242
7989
8290
7982
8299
8016
8243
8051
8165
8120
8091
8162
8049
8170
8068
8160
8122
8113
8184
8054
8237
8037
8241
8052
8218
8125
8176
8212
8122
8300
8055
8302
7996
8262
8000
8185
8043
8113
8092
8069
8128
8050
8131
8069
8086
8154
8061
8238
8016
8268
7973
8267
7990
8208
8032
8153
8134
8130
8262
8131
8293
8071
8239
8084
8151
8100
8082
8162
8075
8217
8095
8224
8157
8173
8226
8119
8307
8054
8338
8033
8361
8062
8301
8097
8218
8167
8172
8211
8124
8226
8110
8185
8147
8133
8202
8053
8234
8001
8221
8023
8235
8107
8179
8163
8090
8224
8041
8310
8076
8350
8111
8301
8138
8217
8210
8191
8269
8163
8235
8167
8183
8195
8088
8240
8019
8275
7988
8297
7994
8253
8057
8196
8122
8107
8165
8045
8198
8033
8170
8073
8149
8107
8072
8143
8024
8181
8030
8161
8050
8115
8137
8068
8234
8026
8299
8008
8307
8005
8246
8037
8195
8125
8140
8169
8089
8158
8064
8117
8086
8073
8173
8027
8229
8001
8247
8003
8216
8050
8179
8138
8117
8198
8036
8248
8030
8287
8061
8269
8130
8222
8196
8157
8246
8130
8213
8125
8181
8218
8165
8318
8099
8337
8008
8293
7973
8233
8012
8188
8099
8144
8194
8106
8222
8081
8230
8104
8169
8163
8141
8239
8088
8247
8052
8213
8077
8173
8161
8118
8234
8045
8271
7984
8291
8005
8266
8040
8189
8079
8096
8110
8064
8157
8100
8192
8163
8131
8217
8072
8275
8030
8313
8064
8331
8120
8269
8180
8179
8215
8070
8236
8020
8223
8020
8202
8071
8139
8108
8059
8114
8012
8134
8057
8136
8138
8084
8206
8006
8244
7959
8287
8002
8318
8077
8290
8179
8245
8258
8187
8276
8147
8277
8146
8187
8186
8155
8283
8112
8282
8050
8194
7982
8076
8018
8030
8152
8039
8268
8006
8265
7965
8212
8008
8192
8098
8152
8207
8199
8283
8189
8269
8229
8200
8269
8125
8350
8119
8411
8107
8371
8112
8269
8128
8156
8150
8045
8176
7980
8148
7978
8136
8025
8079
8060
8005
8091
7981
8110
8016
8117
8090
8093
8209
8065
8333
8100
8458
8165
8467
8206
8419
8272
8347
8294
8218
8256
8115
8228
8129
8207
8228
8163
8258
8064
8252
8019
8244
8052
8201
8109
8138
8186
8058
8226
7980
8231
7968
8210
8007
8173
8068
8096
8119
8098
8206
8116
8199
8165
8172
8237
8072
8234
7962
8226
7906
8176
7908
8116
7959
8058
8062
8012
8139
8021
8211
8062
8192
8073
8112
8110
8052
8168
8052
8230
8103
8220
8180
8201
8263
8109
8274
8003
8289
7974
8274
7996
8220
8043
8124
8077
8042
8100
8012
8110
8033
8086
8097
8053
8207
8071
8306
8074
8322
8105
8292
8164
8207
8214
8163
8348
8176
8402
8157
8385
8152
8296
8179
8202
8194
8127
8226
8116
8198
8106
8065
8083
7964
8195
7986
8273
7938
8229
7965
8240
8067
8194
8161
8139
8207
8088
8224
8054
8185
8110
8144
8156
8090
8230
8086
8280
8115
8245
8168
8217
8278
8209
8411
8188
8436
8084
8342
8037
8240
8042
8154
8102
8087
8136
8056
8124
8056
8107
8127
8066
8195
8027
8291
8038
8317
8058
8290
8133
8241
8222
8192
8346
8177
8361
8113
8318
8101
8242
8122
8148
8165
8127
8245
8120
8208
8132
8146
8160
8019
8176
7936
8201
7901
8222
7931
8181
7975
8112
8030
8036
8080
7985
8090
7938
8030
7970
8029
8087
8031
8163
8008
8211
8041
8204
8078
8151
8144
8062
8224
8020
8266
7973
8263
8006
8248
8069
8206
8159
8202
8283
8239
8324
8253
8278
8249
8158
8258
8069
8321
8044
8298
7992
8236
8059
8212
8171
8181
8256
8093
8252
8095
8345
8204
8351
8270
8299
8299
8168
8260
8108
8216
8129
8149
8146
8078
8242
8017
8248
7921
8259
8010
8318
8092
8241
8115
8096
8101
8025
8121
8019
8103
8039
8063
8097
8018
8181
8030
8258
8049
8251
8082
8173
8128
8096
8195
8003
8225
7959
8214
7964
8189
7980
8053
8003
8036
8102
8050
8142
8075
8154
8171
8139
8283
8118
8356
8055
8326
8024
8309
8122
8328
8281
8320
8380
8263
8378
8171
8329
8153
8250
8131
8120
8124
8015
8127
7983
8101
7987
8061
8063
8027
8178
8027
8347
8069
8387
8084
8349
8097
8258
8133
8176
8183
8119
8242
8148
8240
8147
8137
8193
8090
8240
8018
8241
7992
8200
8025
8181
8122
8113
8178
8023
8229
7978
8216
7974
8227
8086
8216
8146
8166
8248
8182
8307
8214
8254
8211
8118
8210
8016
8267
8004
8331
8027
8310
8063
8249
8090
8082
8099
8008
8151
8015
8193
8078
8226
8195
8195
8213
8105
8239
8057
8208
8086
8204
8165
8142
8266
8121
8365
8072
8363
8039
8303
8034
8206
8056
8084
8071
8020
8067
7951
8025
7978
8001
8064
7957
8129
7986
8307
8105
8404
8210
8346
8213
8225
8298
8232
8434
8241
8445
8185
8355
8124
8189
8105
8096
8145
8053
8132
8028
8085
8075
8055
8163
8024
8247
7963
8270
7964
8253
7976
8174
8027
8126
8112
8039
8092
7939
8070
7984
8089
8069
8086
8170
8055
8160
7995
8226
8079
8191
8152
8145
8196
8089
8337
8117
8417
8120
8394
8142
8340
8189
8244
8238
8234
8323
8229
8253
8131
8137
8222
8124
8307
8073
8300
7996
8212
7929
8117
7966
8031
8042
7974
8117
7951
8165
7980
8182
8031
8116
8058
8056
8140
8100
8282
8179
8273
8237
8236
8332
8202
8411
8140
8436
8102
8384
8078
8300
8117
8197
8144
8107
8199
8105
8205
8079
8158
8123
8108
8166
8052
8229
8010
8199
8012
8183
8097
8132
8166
8064
8262
8068
8342
8047
8311
8045
8216
8064
8140
8130
8097
8151
8088
8163
8106
8114
8145
8026
8171
7939
8188
7931
8217
7942
8182
8039
8196
8207
8168
8252
8078
8235
8045
8192
8032
8097
8048
8076
8223
8121
8246
8092
8237
8209
8252
8324
8193
8338
8050
8334
8042
8387
8105
8338
8112
8186
8105
8103
8155
8080
8200
8107
8193
8174
8128
8172
8019
8180
7973
8200
7962
8144
8013
8095
8050
7972
8129
7972
8239
8008
8270
8005
8174
8035
8136
8145
8140
8254
8185
8328
8311
8350
8358
8254
8370
8093
8295
7959
8255
7963
8227
8051
8217
8158
8146
8184
8053
8207
8039
8186
8073
8159
8131
8117
8222
8106
8272
8102
8243
8158
8230
8241
8145
8287
8117
8412
8137
8455
8141
8366
8142
8282
8216
8219
8223
8129
8180
8042
8070
8035
8013
8080
7933
8113
7922
8205
7977
8178
7982
8087
8027
7997
8106
7951
8195
8020
8292
8074
8270
8098
8147
8115
8095
8186
8111
8198
8089
8137
8156
8092
8238
8041
8304
8020
8340
8054
8361
8146
8345
8255
8302
8305
8186
8259
8103
8249
8097
8144
8117
8073
8137
7999
8154
8001
8185
8073
8158
8106
8061
8193
8030
8270
7936
8159
7832
8027
7797
7967
7920
7983
8054
8034
8132
8058
8117
8109
8098
8193
8080
8335
8154
8471
8286
8587
8376
8497
8388
8374
8375
8196
8314
8079
8275
8033
8199
8033
8059
8021
7959
8029
7942
8085
8028
8128
8135
8062
8201
8051
8359
8121
8469
8179
8456
8167
8308
8141
8195
8193
8112
8188
8022
8118
8037
8128
8142
8141
8301
8129
8304
8116
8340
8166
8266
8179
8153
8231
8106
8323
8053
8310
8011
8278
8033
8145
8002
8021
8024
7981
8091
8061
8145
8102
8057
8113
7996
8214
8000
8342
8108
8399
8153
8305
8170
8207
8205
8107
8231
8055
8253
8046
8194
8083
8157
8174
8150
8235
8066
8134
7991
8055
8019
8009
8125
7969
8217
7992
8322
7999
8262
7977
8177
8047
8147
8119
8051
8103
8020
8157
8092
8153
8178
8142
8272
8092
8274
8028
8263
8067
8216
8134
8150
8199
8093
8256
8035
8295
8013
8276
8080
8289
8211
8241
8258
8208
8303
8217
8306
8291
8298
8368
8224
8407
8129
8387
8060
8323
8019
8219
8057
8135
8111
8035
8138
7949
8080
7904
8042
7960
8006
8008
7970
8083
7962
8107
7976
8130
8128
8169
8239
8084
8312
8070
8369
8053
8353
8096
8340
8189
8291
8268
8240
8282
8144
8201
8068
8071
8063
8005
8106
7919
8127
7910
8170
7980
8178
8046
8098
8084
7975
8159
7970
8220
7989
8267
8108
8300
8233
8313
8346
8300
8375
8268
8317
8234
8213
8228
8089
8257
7987
8247
7946
8281
8015
8267
8108
8210
8130
8080
8180
8088
8270
8118
8255
8153
8200
8248
8178
8302
8121
8284
8089
8197
8098
8140
8189
8071
8226
7985
8266
7959
8262
8009
8264
8126
8261
8216
8187
8205
8090
8149
8059
8065
8020
7944
8066
7904
8124
7913
8208
7985
8204
8046
8158
8167
8140
8264
8088
8310
8112
8374
8226
8396
8318
8336
8327
8238
8282
8118
8191
8105
8141
8198
8113
8306
8074
8370
8057
8362
8062
8317
8103
8211
8115
8082
8107
8004
8121
8026
8156
8072
8066
8061
7968
8100
7950
8139
7996
8169
8019
8057
8051
7991
8143
7949
8226
7984
8307
8069
8319
8129
8246
8175
8138
8152
8094
8213
8144
8199
8204
8124
8228
8042
8288
8035
8321
8043
8288
8098
8227
8173
8190
8277
8135
8303
8082
8276
8079
8196
8081
8096
8095
8023
8145
8036
8146
8079
8175
8198
8080
8162
7892
8114
7832
8154
7869
8125
7921
8084
7996
8035
8093
8063
8187
8066
8143
8077
8113
8202
8139
8335
8186
8425
8290
8524
8392
8502
8494
8454
8498
8271
8445
8141
8376
8085
8299
8096
8181
8073
8060
8086
8008
8079
7993
8046
8040
7984
8087
7936
8183
7920
8236
8000
8339
8187
8399
8271
8268
8278
8161
8258
8057
8206
8038
8162
8108
8144
8181
8068
8156
8003
8142
8071
8220
8228
8204
8327
8112
8328
8015
8311
8001
8261
8005
8200
8082
8136
8118
8052
8128
8022
8091
8035
8095
8179
8069
8188
7969
8191
7975
8211
8011
8139
8035
7996
8054
7942
8155
7950
8262
8073
8326
8146
8273
8205
8205
8246
8157
8278
8213
8322
8331
8278
8340
8122
8316
8019
8320
8015
8306
8026
8204
8046
8102
8117
8068
8177
7993
8135
8022
8137
8064
8056
8080
7973
8110
7956
8101
7969
8102
8081
8132
8267
8141
8347
8045
8289
7961
8258
8018
8226
8109
8208
8232
8211
8291
8179
8252
8187
8230
8294
8179
8330
8159
8419
8139
8375
8125
8263
8123
8149
8163
8056
8227
8024
8230
7992
8171
7997
8101
8015
8004
8056
7993
8092
7988
8048
8018
8029
8146
8040
8286
8024
8328
8047
8393
8116
8344
8183
8279
8269
8246
8364
8274
8378
8202
8258
8160
8117
8109
7975
8152
7999
8182
8021
8171
8117
8154
8206
8072
8233
8002
8293
8025
8323
8084
8315
8180
8235
8202
8185
8273
8184
8257
8163
8166
8210
8118
8292
8054
8295
8004
8265
8011
8215
8054
8137
8132
8053
8191
8022
8198
7984
8164
8023
8110
8047
8036
8091
7992
8096
7988
8079
8024
8053
8155
8052
8245
7980
8267
7940
8256
7985
8266
8101
8245
8215
8224
8322
8230
8331
8189
8255
8198
8197
8260
8107
8256
8046
8283
8091
8252
8120
8156
8166
8082
8251
8044
8313
8074
8374
8126
8314
8116
8162
8099
8041
8083
7972
8025
7965
8021
8080
8000
8160
7952
8237
7957
8235
7956
8215
8050
8169
8120
8122
8252
8167
8380
8227
8391
8247
8333
8293
8272
8320
8219
8346
8184
8256
8156
8167
8165
8011
8162
7944
8210
7880
8145
7870
8144
7948
8112
8065
8108
8167
8069
8147
8079
8238
8254
8260
8333
8197
8355
8096
8325
8084
8266
8110
8200
8177
8112
8192
8025
8265
8006
8239
7977
8171
8047
8146
8122
8126
8227
8154
8260
8195
8244
8260
8193
8322
8069
8306
8016
8342
8034
8283
8071
8218
8117
8101
8160
8074
8235
8062
8207
8084
8182
8171
8186
8275
8126
8266
8073
8192
8069
8125
8120
8022
8171
7958
8216
7913
8190
7906
8171
7968
8127
8035
8049
8080
8051
8174
8101
8150
8104
8087
8199
8083
8296
8072
8319
8065
8321
8145
8247
8179
8142
8209
8058
8285
8078
8335
8118
8318
8157
8233
8185
8122
8158
8063
8175
8121
8188
8187
8120
8240
8032
8276
7980
8295
7982
8248
8008
8190
8078
8119
8131
8050
8156
8015
8146
8039
8098
8067
8019
8107
7983
8147
7998
8191
8055
8144
8110
8089
8226
8062
8305
8015
8311
8012
8256
8033
8216
8136
8221
8280
8232
8321
8221
8289
8269
8264
8346
8192
8354
8101
8405
8164
8382
8137
8272
8154
8177
8248
8146
8275
8042
8220
8000
8163
8056
8139
8121
8065
8111
7994
8097
7976
8021
8019
8018
8167
7992
8229
7976
8286
7954
8234
7976
8199
8085
8173
8186
8158
8271
8155
8293
8206
8285
8290
8264
8358
8184
8352
8127
8335
8141
8254
8171
8157
8221
8057
8241
7995
8270
7993
8268
8042
8204
8085
8119
8117
8056
8124
8041
8100
8048
8009
8069
7952
8134
7899
8170
7911
8221
8016
8231
8097
8150
8160
8073
8224
8088
8317
8148
8339
8209
8258
8230
8168
8258
8120
8265
8144
8220
8158
8117
8191
8040
8270
8021
8327
8002
8302
8041
8261
8083
8159
8112
8095
8174
8081
8192
8113
8155
8137
8073
8204
8078
8323
8120
8351
8124
8252
8141
8158
8190
8072
8256
8044
8298
8022
8283
8066
8223
8103
8138
8138
8089
8158
8076
8141
8094
8105
8173
8042
8240
8007
8293
7986
8283
8012
8242
8100
8205
8187
8160
8249
8082
8223
8055
8181
8063
8102
8111
8064
8164
8040
8193
8054
8177
8117
8137
8198
8077
8276
8038
8320
8007
8311
8011
8232
8055
8171
8139
8116
8173
8069
8153
8096
8172
8171
8104
8213
8024
8228
7992
8247
8036
8243
8120
8195
8203
8129
8244
8050
8275
8033
8271
8064
8213
8109
8155
8181
8128
8241
8135
8208
8121
8143
8196
8096
8256
7998
8276
7981
8312
8033
8265
8063
8192
8132
8120
8174
8046
8181
8034
8151
8066
8096
8109
8059
8165
8003
8167
8001
8159
8085
8168
8217
8148
8331
8142
8420
8128
8427
8164
8416
8224
8321
8222
8222
8273
8167
8249
8142
8194
8196
8120
8242
8056
8250
7958
8197
7917
8139
7971
8087
8013
7973
8039
7872
8068
7873
8100
7945
8114
8040
8111
8141
8093
8205
8116
8226
8176
8248
8343
8327
8506
8298
8540
8190
8464
8113
8333
8051
8155
8021
8015
8024
7910
8005
7896
8026
7979
8051
8121
8092
8284
8153
8382
8184
8349
8206
8290
8269
8196
8284
8076
8299
7992
8263
7975
8179
7965
8083
8039
8052
8099
8060
8171
8130
8205
8211
8179
8311
8139
8388
8146
8455
8181
8428
8194
8336
8251
8264
8309
8162
8285
8072
8267
8091
8250
8154
8187
8161
8068
8157
8021
8113
8008
8061
8061
8000
8126
7934
8211
7940
8275
7997
8312
8095
8319
8238
8313
8315
8214
8277
8133
8238
8149
8183
8202
8096
8238
8051
8264
8030
8226
8043
8171
8114
8097
8177
8028
8228
7990
8251
7983
8200
8010
8133
8058
8074
8105
8043
8134
8061
8120
8102
8058
8152
7981
8195
7941
8244
7949
8217
7995
8196
8085
8134
8156
8065
8184
8012
8166
8032
8162
8109
8173
8251
8176
8309
8139
8277
8111
8201
8162
8116
8204
8020
8251
7990
8306
8002
8297
8043
8228
8096
8162
8148
8094
8180
8086
8182
8120
8133
8162
8068
8220
8040
8285
8045
8270
8081
8255
8147
8160
8181
8065
8241
8013
8233
7977
8161
7973
8087
8032
8061
8103
8036
8140
8065
8151
8113
8121
8218
8064
8282
8029
8346
8040
8342
8063
8279
8142
8217
8192
8145
8255
8136
8310
8171
8290
8221
8233
8288
8178
8295
8099
8219
8019
8090
8000
7994
8073
7945
8166
7932
8251
7979
8277
8014
8253
8147
8243
8237
8226
8287
8153
8190
8106
8115
8142
8074
8258
8078
8355
8094
8328
8085
8295
8165
8228
8240
8161
8293
8118
8348
8115
8333
8157
8291
8229
8255
8291
8193
8302
8199
8300
8239
8207
8253
8092
8289
8003
8290
7977
8289
8013
8245
8071
8176
8133
8097
8165
8041
8158
8036
8126
8067
8069
8125
8026
8178
8021
8215
8041
8184
8099
8135
8174
8069
8243
8017
8288
7993
8257
7989
8195
8042
8113
8072
8047
8116
8044
8117
8052
8075
8108
8041
8207
8019
8280
8005
8313
8078
8325
8168
8254
8214
8158
8248
8072
8253
8041
8239
8071
8185
8119
8118
8166
8072
8188
8062
8166
8089
8127
8164
8044
8229
7994
8283
7979
8299
8004
8261
8065
8200
8137
8131
8182
8089
8193
8081
8161
8107
8104
8181
8054
8222
8013
8224
8019
8200
8076
8159
8157
8083
8231
8040
8293
8028
8299
8044
8260
8082
8180
8148
8136
8206
8112
8212
8174
8211
8221
8120
8255
8036
8281
7989
8281
7992
8231
8039
8173
8120
8111
8189
8062
8225
8055
8234
8112
8248
8205
8202
8265
8128
8256
8097
8216
8118
8145
8171
8080
8240
8027
8304
7999
8304
8004
8283
8048
8204
8123
8142
8177
8101
8195
8099
8170
8130
8117
8201
8075
8261
8034
8273
8036
8240
8074
8192
8156
8121
8225
8049
8266
8031
8285
8042
8253
8091
8191
8153
8128
8178
8090
8179
8096
8142
8144
8066
8203
8012
8265
7979
8288
7985
8253
8037
8198
8117
8142
8200
8110
8250
8100
8258
8123
8206
8170
8155
8249
8115
8260
8078
8238
8131
8197
8189
8131
8251
8061
8318
8033
8330
8026
8290
8048
8215
8111
8153
8164
8101
8194
8099
8170
8137
8130
8207
8072
8259
8025
8283
8020
8257
8060
8212
8136
8129
8191
8053
8231
8020
8264
8037
8235
8085
8178
8141
8121
8184
8095
8204
8107
8164
8152
8088
8211
8030
8285
7995
8309
7990
8273
8026
8216
8085
8146
8157
8081
8202
8070
8226
8093
8170
8149
8120
8216
8083
8267
8076
8257
8118
8218
8170
8149
8245
8073
8287
8018
8313
8022
8290
8053
8225
8109
8173
8178
8126
8207
8112
8194
8142
8132
8204
8068
8260
8011
8267
7983
8253
8025
8204
8104
8151
8181
8098
8244
8057
8266
8051
8231
8097
8178
8146
8118
8186
8077
8190
8086
8173
8151
8118
8217
8046
8293
8019
8328
8004
8309
8039
8250
8094
8178
8170
8134
8219
8102
8231
8116
8183
8160
8111
8214
8065
8254
8045
8249
8062
8204
8120
8124
8181
8047
8246
8010
8290
8013
8284
8061
8233
8104
8159
8149
8102
8171
8088
8158
8124
8127
8203
8083
8282
8041
8335
8055
8337
8057
8250
8109
8182
8175
8117
8238
8075
8263
8080
8243
8110
8181
8157
8120
8223
8087
8218
8088
8182
8131
8126
8191
8050
8250
7996
8295
7987
8299
8025
8253
8076
8181
8140
8107
8181
8082
8177
8096
8144
8138
8095
8205
8051
8261
8033
8261
8055
8228
8116
8159
8181
8067
8228
8015
8271
8011
8274
8057
8238
8123
8187
8186
8128
8190
8102
8190
8131
8141
8174
8051
8231
8002
8284
7985
8280
7995
8229
8059
8171
8142
8122
8215
8082
8264
8094
8244
8124
8197
8187
8126
8234
8087
8242
8103
8233
8150
8162
8197
8070
8255
8005
8280
7970
8278
8004
8249
8077
8215
8160
8165
8219
8138
8213
8115
8154
8142
8095
8210
8042
8257
8007
8257
8021
8222
8070
8165
8151
8088
8213
8044
8283
8041
8282
8061
8216
8098
8171
8196
8146
8237
8135
8221
8160
8174
8202
8096
8273
8050
8325
8026
8329
8029
8276
8072
8218
8142
8138
8195
8085
8219
8072
8203
8106
8151
8151
8092
8202
8052
8226
8056
8205
8085
8147
8153
8068
8225
8014
8290
7992
8291
8002
8239
8052
8186
8121
8132
8188
8111
8189
8106
8149
8158
8109
8217
8048
8270
8009
8274
8012
8251
8065
8196
8146
8126
8209
8057
8243
8032
8262
8051
8211
8105
8154
8162
8121
8228
8104
8214
8116
8164
8175
8083
8228
8014
8291
7991
8305
7999
8264
8049
8216
8121
8152
8185
8095
8204
8079
8186
8098
8142
8154
8084
8229
8050
8249
8045
8225
8081
8166
8149
8095
8214
8033
8272
8017
8306
8032
8273
8064
8203
8128
8142
8181
8112
8204
8122
8187
8176
8132
8237
8074
8297
8035
8322
8030
8285
8066
8226
8154
8176
8210
8086
8245
8053
8251
8057
8196
8101
8150
8162
8092
8192
8058
8179
8070
8143
8125
8067
8207
8015
8263
7981
8290
7984
8277
8040
8227
8120
8163
8161
8090
8197
8087
8178
8108
8139
8152
8079
8235
8047
8262
8039
8248
8073
8195
8128
8126
8214
8068
8280
8034
8303
8039
8278
8073
8223
8150
8149
8186
8107
8197
8122
8186
8179
8140
8231
8066
8298
8027
8320
8019
8297
8053
8238
8120
8164
8188
8095
8233
8073
8247
8076
8212
8129
8160
8195
8120
8242
8080
8229
8100
8196
8171
8140
8233
8065
8307
8026
8323
8011
8296
8038
8232
8089
8166
8156
8110
8198
8107
8201
8136
8150
8183
8085
8241
8036
8273
8026
8260
8055
8214
8126
8147
8193
8066
8245
8022
8279
8028
8253
8060
8198
8118
8135
8171
8110
8206
8103
8177
8153
8128
8219
8062
8286
8018
8324
8013
8317
8041
8255
8102
8177
8161
8099
8204
8063
8223
8078
8205
8139
8160
8209
8104
8238
8060
8221
8059
8179
8124
8122
8195
8041
8246
7992
8288
7981
8280
8025
8229
8084
8173
8158
8119
8193
8098
8178
8116
8137
8172
8070
8218
8022
8270
8003
8267
8039
8225
8106
8162
8172
8096
8236
8043
8273
8038
8258
8076
8198
8129
8140
8190
8101
8203
8103
8186
8140
8128
8204
8057
8279
8022
8317
8002
8309
8010
8238
8060
8180
8152
8133
8217
8093
8227
8100
8198
8129
8133
8197
8083
8239
8060
8244
8068
8212
8120
8147
8193
8075
8261
8017
8296
8001
8291
8041
8252
8098
8189
8157
8127
8196
8108
8190
8120
8134
8175
8071
8228
8022
8283
8004
8281
8022
8236
8088
8172
8159
8114
8228
8072
8274
8064
8269
8107
8220
8137
8138
8200
8103
8222
8093
8201
8141
8142
8195
8072
8262
8021
8313
7991
8311
8014
8254
8060
8194
8140
8132
8188
8092
8209
8094
8180
8126
8125
8194
8066
8240
8044
8246
8046
8226
8107
8161
8180
8092
8241
8036
8294
8009
8286
8035
8241
8080
8175
8139
8115
8175
8106
8187
8120
8132
8164
8081
8231
8021
8281
8005
8303
8025
8260
8077
8203
8154
8134
8218
8069
8242
8050
8237
8083
8192
8140
8131
8201
8095
8241
8089
8216
8125
8160
8183
8078
8239
8015
8296
7984
8298
7995
8257
8052
8188
8117
8129
8169
8092
8199
8106
8190
8148
8137
8212
8090
8273
8054
8296
8060
8253
8095
8177
8159
8110
8220
8038
8268
8019
8287
8044
8248
8092
8195
8166
8136
8194
8102
8189
8106
8139
8154
8066
8223
8026
8287
8000
8298
8002
8255
8039
8203
8135
8149
8201
8088
8234
8062
8229
8089
8185
8148
8121
8199
8076
8226
8074
8217
8110
8166
8171
8099
8237
8034
8300
7995
8305
8005
8280
8052
8213
8132
8149
8171
8104
8198
8104
8181
8137
8113
8190
8053
8252
8020
8270
8021
8254
8076
8202
8152
8128
8213
8056
8258
8037
8280
8050
8248
8093
8185
8147
8121
8182
8101
8201
8118
8172
8175
8102
8233
8034
8289
7997
8306
7998
8277
8048
8225
8126
8163
8182
8096
8218
8077
8212
8094
8166
8138
8112
8199
8065
8240
8061
8223
8087
8181
8155
8115
8232
8044
8276
8004
8305
8000
8275
8049
8216
8113
8156
8171
8109
8201
8108
8188
8144
8127
8213
8071
8271
8028
8289
8019
8259
8053
8211
8130
8141
8189
8073
8248
8044
8262
8047
8236
8097
8175
8149
8124
8203
8089
8200
8105
8174
8161
8111
8227
8050
8290
7997
8312
7995
8293
8039
8233
8088
8167
8181
8127
8231
8096
8225
8103
8153
8140
8102
8197
8052
8247
8053
8240
8075
8194
8139
8125
8206
8049
8251
8007
8292
8006
8269
8044
8220
8114
8165
8175
8124
8207
8120
8187
8155
8129
8210
8076
8281
8029
8305
8018
8294
8038
8224
8108
8150
8172
8081
8231
8052
8256
8058
8235
8103
8174
8154
8108
8189
8074
8209
8093
8181
8152
8125
8216
8047
8270
7997
8314
8004
8301
8033
8248
8098
8192
8176
8137
8220
8109
8228
8117
8181
8174
8109
8220
8056
8249
8027
8241
8057
8215
8126
8137
8189
8056
8250
8017
8279
8012
8270
8049
8211
8100
8158
8157
8115
8187
8104
8177
8132
8118
8202
8074
8273
8020
8309
8016
8306
8035
8233
8099
8171
8157
8087
8208
8055
8234
8066
8225
8102
8156
8157
8101
8219
8081
8219
8082
8194
8141
8134
8199
8060
8262
8011
8309
7991
8299
8029
8255
8083
8181
8155
8120
8193
8101
8193
8117
8163
8168
8110
8229
8058
8268
8030
8277
8046
8229
8113
8166
8183
8100
8251
8046
8293
8036
8270
8057
8213
8104
8147
8161
8110
8187
8102
8190
8127
8147
8193
8062
8256
8015
8296
7990
8299
8021
8251
8066
8176
8147
8115
8204
8078
8230
8079
8228
8122
8164
8169
8099
8205
8056
8220
8067
8206
8128
8151
8188
8064
8253
8022
8303
8009
8314
8039
8258
8090
8200
8149
8128
8187
8097
8182
8117
8149
8167
8106
8229
8045
8266
8011
8279
8029
8231
8088
8170
8164
8109
8229
8056
8277
8036
8263
8052
8205
8108
8148
8170
8116
8214
8105
8200
8137
8145
8186
8072
8259
8023
8313
7996
8312
8013
8268
8066
8201
8146
8145
8203
8100
8233
8093
8228
8133
8168
8190
8100
8240
8056
8232
8047
8196
8075
8134
8156
8063
8224
8015
8292
7998
8290
8022
8244
8064
8189
8144
8128
8185
8102
8181
8113
8164
8176
8099
8233
8048
8284
8012
8295
8029
8266
8093
8192
8141
8115
8209
8058
8248
8038
8253
8066
8207
8117
8138
8161
8100
8203
8084
8196
8129
8157
8186
8085
8248
8028
8304
7994
8311
7999
8269
8058
8213
8134
8150
8186
8099
8212
8092
8199
8128
8146
8194
8101
8247
8055
8273
8061
8238
8099
8177
8157
8100
8223
8024
8282
8009
8292
8023
8261
8074
8194
8133
8132
8184
8096
8177
8109
8162
8178
8107
8229
8045
8291
8010
8298
8012
8259
8045
8201
8135
8142
8207
8076
8242
8057
8254
8078
8208
8134
8150
8190
8103
8219
8082
8207
8111
8165
8175
8105
8247
8033
8303
8000
8311
8006
8282
8041
8215
8118
8150
8181
8106
8210
8098
8196
8128
8134
8188
8079
8240
8036
8262
8030
8236
8071
8193
8141
8110
8213
8045
8264
8014
8285
8032
8263
8087
8197
8130
8129
8173
8098
8186
8107
8164
8163
8101
8220
8030
8272
7994
8298
8001
8277
8047
8223
8117
8147
8182
8079
8224
8062
8238
8076
8193
8131
8138
8176
8084
8217
8063
8213
8092
8176
8167
8115
8235
8042
8295
8004
8313
8005
8286
8047
8226
8108
8159
8168
8110
8195
8101
8195
8139
8144
8194
8084
8253
8030
8279
8028
8256
8065
8201
8132
8138
8205
8063
8257
8034
8279
8043
8253
8078
8199
8142
8141
8194
8101
8209
8114
8178
8161
8109
8224
8045
8283
8001
8308
7993
8288
8034
8230
8111
8172
8176
8093
8206
8068
8215
8087
8193
8139
8132
8206
8098
8254
8071
8245
8084
8184
8143
8116
8208
8036
8265
8002
8303
8001
8286
8042
8229
8101
8166
8165
8112
8193
8103
8171
8128
8130
8191
8067
8253
8027
8281
8015
8266
8047
8228
8119
8158
8187
8076
8242
8042
8263
8034
8238
8078
8183
8134
8126
8202
8107
8215
8112
8193
8162
8137
8225
8061
8293
8007
8313
8000
8304
8031
8239
8083
8178
8159
8108
8208
8079
8212
8094
8171
8136
8121
8201
8078
8249
8052
8240
8072
8211
8143
8155
8217
8083
8282
8024
8296
8006
8283
8044
8232
8096
8162
8143
8110
8194
8104
8182
8120
8127
8191
8073
8261
8017
8271
7993
8267
8025
8232
8091
8164
8170
8105
8229
8055
8245
8056
8251
8088
8187
8143
8112
8187
8079
8202
8089
8189
8138
8136
8198
8054
8261
8010
8313
7998
8308
8024
8255
8081
8189
8151
8127
8199
8097
8210
8103
8169
8149
8119
8209
8065
8251
8039
8253
8055
8215
8112
8158
8192
8087
8249
8025
8289
8011
8277
8036
8226
8092
8169
8150
8122
8199
8111
8195
8129
8146
8198
8082
8260
8035
8308
8017
8313
8028
8260
8097
8194
8176
8137
8238
8083
8252
8077
8248
8107
8194
8151
8130
8206
8084
8218
8084
8200
8121
8135
8186
8061
8246
8001
8286
7980
8292
8007
8252
8060
8192
8154
8149
8196
8106
8202
8104
8158
8134
8100
8201
8055
8252
8022
8254
8032
8229
8095
8164
8163
8096
8224
8033
8281
8021
8272
8046
8226
8095
8173
8148
8117
8189
8101
8189
8123
8155
8193
8080
8254
8026
8307
8007
8307
8014
8269
8064
8205
8146
8136
8202
8082
8232
8074
8230
8104
8168
8155
8108
8203
8073
8228
8069
8207
8114
8154
8182
8078
8244
8019
8296
7993
8296
8016
8252
8059
8191
8116
8141
8178
8101
8183
8114
8177
8170
8143
8244
8081
8289
8037
8295
8039
8251
8072
8179
8143
8111
8212
8036
8254
8030
8275
8062
8232
8100
8153
8155
8116
8190
8091
8191
8118
8156
8179
8087
8249
8030
8288
7983
8306
8004
8268
8045
8211
8124
8139
8190
8088
8220
8077
8195
8099
8154
8156
8098
8227
8066
8239
8054
8222
8108
8173
8170
8104
8242
8040
8304
8007
8304
8019
8272
8066
8207
8127
8153
8188
8109
8184
8108
8168
8163
8115
8215
8053
8275
8015
8287
8015
8259
8060
8198
8130
8122
8200
8058
8251
8043
8267
8066
8221
8113
8162
8165
8118
8210
8093
8214
8124
8179
8190
8111
8249
8040
8305
7994
8306
7994
8272
8046
8223
8130
8161
8183
8105
8218
8087
8190
8105
8139
8158
8090
8229
8055
8259
8054
8233
8072
8179
8142
8113
8218
8051
8280
8008
8295
8009
8257
8050
8196
8113
8135
8183
8112
8186
8109
8170
8162
8118
8222
8059
8281
8019
8298
8009
8273
8052
8224
8126
8152
8196
8080
8239
8052
8256
8068
8216
8107
8155
8162
8097
8200
8081
8209
8094
8169
8158
8109
8230
8044
8291
7991
8312
8000
8298
8048
8235
8111
8162
8163
8106
8206
8098
8221
8134
8160
8186
8098
8248
8054
8270
8040
8247
8069
8211
8145
8141
8219
8071
8264
8022
8293
8025
8267
8065
8205
8119
8133
8164
8105
8187
8113
8173
8158
8115
8210
8050
8269
8013
8300
7996
8277
8037
8227
8101
8161
8179
8093
8225
8070
8228
8072
8207
8112
8148
8166
8090
8208
8066
8222
8087
8185
8162
8126
8223
8055
8279
8006
8320
8009
8300
8035
8239
8091
8172
8155
8114
8194
8097
8187
8114
8147
8180
8084
8229
8036
8274
8031
8268
8054
8219
8121
8152
8192
8066
8243
8026
8278
8032
8263
8066
8197
8120
8141
8169
8105
8201
8104
8192
8160
8136
8217
8066
8280
8012
8307
7997
8304
8031
8249
8097
8182
8169
8115
8210
8070
8222
8086
8205
8132
8147
8200
8097
8237
8062
8225
8068
8191
8126
8132
8195
8050
8257
8007
8296
7994
8287
8031
8237
8080
8170
8144
8115
8187
8102
8179
8126
8143
8182
8093
8242
8042
8289
8021
8289
8046
8246
8110
8178
8178
8110
8242
8055
8273
8046
8259
8080
8213
8127
8139
8175
8097
8198
8093
8182
8132
8134
8191
8052
8252
8007
8304
7997
8304
8010
8256
8070
8189
8144
8128
8192
8085
8216
8087
8193
8130
8144
8192
8090
8248
8061
8244
8063
8215
8121
8161
8193
8095
8257
8029
8299
8004
8293
8037
8254
8090
8190
8163
8132
8197
8105
8189
8117
8154
8184
8089
8240
8036
8284
8003
8290
8021
8242
8075
8186
8153
8110
8215
8055
8247
8049
8248
8083
8200
8130
8137
8196
8097
8217
8092
8205
8137
8147
8185
8077
8251
8018
8303
7987
8307
8011
8264
8061
8202
8129
8142
8184
8098
8210
8101
8185
8133
8131
8198
8077
8240
8038
8265
8055
8242
8100
8173
8159
8102
8229
8030
8269
8007
8284
8033
8242
8086
8189
8140
8128
8185
8098
8198
8127
8174
8191
8105
8249
8053
8308
8014
8307
8009
8258
8048
8194
8126
8123
8197
8069
8235
8053
8237
8083
8192
8129
8132
8195
8093
8228
8080
8212
8119
8174
8178
8088
8240
8024
8293
7996
8302
7996
8257
8047
8213
8129
8159
8185
8109
8214
8108
8193
8147
8141
8211
8082
8268
8039
8276
8040
8254
8092
8192
8154
8127
8220
8055
8271
8029
8287
8040
8259
8087
8189
8144
8126
8193
8110
8202
8109
8160
8158
8097
8234
8035
8281
8000
8302
7992
8266
8040
8221
8120
8143
8186
8087
8220
8065
8217
8092
8187
8137
8124
8202
8080
8227
8068
8233
8113
8185
8162
8108
8224
8030
8291
8001
8301
8001
8281
8046
8216
8103
8159
8170
8108
8194
8105
8170
8131
8125
8196
8068
8259
8029
8282
8026
8262
8054
8205
8126
8138
8200
8065
8261
8037
8280
8045
8255
8089
8185
8148
8134
8197
8098
8201
8107
8170
8166
8125
8233
8051
8292
8007
8316
8003
8294
8045
8236
8114
8170
8175
8104
8217
8084
8232
8103
8188
8152
8123
8207
8079
8248
8055
8231
8072
8187
8137
8117
8214
8053
8271
8005
8303
8009
8286
8051
8229
8105
8170
8173
8119
8198
8116
8192
8146
8137
8201
8066
8258
8016
8281
8005
8275
8050
8227
8116
8154
8189
8099
8239
8047
8263
8059
8243
8093
8183
8147
8128
8190
8095
8215
8094
8177
8143
8116
8207
8047
8270
7998
8307
7988
8296
8026
8237
8082
8175
8159
8109
8202
8085
8202
8104
8164
8146
8116
8213
8077
8263
8047
8251
8068
8222
8136
8157
8203
8078
8269
8029
8302
8018
8285
8047
8220
8100
8171
8164
8119
8200
8106
8186
8132
8143
8197
8067
8251
8016
8293
8011
8307
8043
8256
8109
8192
8171
8111
8209
8048
8224
8041
8207
8080
8159
8137
8112
8188
8081
8217
8081
8196
8138
8141
8206
8071
8269
8015
8312
7993
8304
8024
8250
8076
8193
8147
8120
8187
8097
8200
8100
8155
8146
8110
8212
8060
8261
8032
8263
8043
8226
8105
8166
8175
8092
8246
8036
8288
8026
8276
8052
8234
8108
8180
8169
8121
8188
8102
8191
8131
8151
8198
8086
8251
8025
8304
8002
8311
8020
8257
8069
8197
8143
8128
8213
8078
8236
8082
8236
8101
8157
8149
8110
8222
8082
8228
8080
8207
8123
8155
8182
8070
8241
8007
8291
7994
8294
8008
8252
8065
8188
8134
8128
8184
8099
8187
8106
8161
8152
8114
8221
8061
8277
8032
8284
8035
8249
8100
8195
8163
8124
8233
8056
8280
8036
8278
8054
8215
8107
8171
8159
8120
8188
8091
8191
8113
8147
8179
8074
8237
8025
8297
7988
8308
8006
8270
8053
8219
8144
8156
8199
8102
8227
8086
8220
8121
8161
8153
8103
8230
8070
8240
8066
8223
8106
8171
8164
8110
8242
8045
8297
8012
8316
8024
8284
8068
8210
8113
8132
8182
8105
8191
8108
8170
8162
8112
8213
8054
8275
8018
8294
8014
8261
8056
8203
8133
8136
8207
8064
8252
8039
8263
8061
8222
8108
8155
8156
8102
8206
8094
8203
8115
8162
8173
8107
8245
8034
8296
8003
8321
8000
8292
8046
8222
8112
8149
8177
8102
8213
8084
8188
8111
8154
8160
8100
8231
8064
8266
8049
8236
8073
8181
8144
8115
8215
8051
8275
8020
8303
8033
8272
8071
8215
8123
8159
8177
8111
8184
8110
8175
8154
8110
8209
8053
8271
8014
8293
8007
8274
8042
8227
8111
8151
8188
8086
8235
8059
8263
8077
8216
8114
8158
8165
8106
8224
8080
8214
8096
8173
8157
8119
8220
8041
8285
8003
8314
7996
8296
8035
8228
8097
8178
8172
8118
8207
8089
8180
8108
8148
8168
8104
8223
8045
8266
8038
8250
8060
8221
8130
8152
8205
8073
8262
8032
8296
8030
8271
8067
8215
8114
8143
8176
8113
8201
8116
8189
8159
8134
8218
8064
8282
8016
8304
7994
8294
8025
8241
8074
8166
8157
8106
8223
8078
8262
8087
8223
8112
8146
8161
8095
8209
8070
8233
8081
8194
8133
8132
8208
8056
8271
8013
8305
8001
8300
8033
8254
8089
8179
8153
8119
8186
8100
8185
8120
8151
8180
8103
8246
8041
8276
8030
8264
8040
8230
8111
8160
8172
8094
8242
8037
8275
8033
8260
8067
8210
8120
8145
8169
8103
8200
8102
8189
8138
8137
8202
8072
8265
8019
8308
7997
8304
8022
8257
8079
8189
8152
8134
8202
8083
8226
8086
8205
8123
8143
8172
8094
8238
8063
8243
8069
8215
8118
8147
8172
8068
8247
8026
8302
8004
8296
8032
8246
8073
8186
8148
8127
8191
8108
8199
8120
8152
8171
8095
8232
8050
8293
8023
8303
8042
8258
8099
8198
8169
8125
8229
8062
8261
8050
8264
8076
8214
8130
8151
8186
8106
8201
8082
8184
8108
8128
8174
8058
8242
8011
8300
7985
8312
8005
8268
8062
8211
8142
8145
8189
8096
8213
8088
8185
8121
8130
8178
8081
8240
8049
8260
8057
8235
8106
8175
8173
8101
8239
8035
8289
8012
8300
8031
8263
8080
8200
8141
8137
8188
8104
8180
8116
8162
8178
8106
8239
8040
8290
8005
8291
8006
8262
8053
8198
8141
8143
8211
8084
8249
8053
8244
8070
8197
8117
8138
8166
8085
8213
8085
8218
8126
8177
8191
8113
8242
8039
8311
8015
8327
8016
8287
8054
8213
8124
8157
8181
8103
8211
8099
8180
8123
8137
8185
8077
8243
8033
8263
8035
8239
8076
8188
8155
8119
8226
8050
8269
8017
8285
8036
8263
8081
8200
8133
8134
8187
8102
8196
8116
8166
8163
8095
8222
8049
8292
8006
8310
8002
8270
8041
8216
8130
8148
8186
8088
8226
8059
8236
8075
8194
8126
8142
8196
8093
8240
8077
8223
8105
8187
8162
8103
8235
8038
8286
7991
8293
7980
8276
8036
8223
8110
8160
8178
8115
8202
8108
8190
8143
8146
8200
8082
8254
8032
8278
8020
8252
8052
8202
8130
8131
8202
8071
8265
8036
8283
8037
8254
8086
8204
8141
8132
8200
8108
8202
8113
8172
8155
8109
8215
8050
8283
8003
8307
7993
8292
8036
8233
8099
8164
8164
8097
8214
8078
8219
8093
8198
8137
8130
8176
8075
8239
8067
8237
8077
8198
8158
8134
8221
8059
8277
8016
8312
8006
8290
8040
8230
8098
8170
8161
8115
8191
8100
8186
8121
8132
8192
8076
8254
8026
8291
8019
8269
8048
8238
8115
8160
8190
8096
8236
8045
8267
8041
8246
8082
8195
8144
8128
8195
8106
8211
8106
8191
8152
8131
8213
8061
8270
8002
8303
7989
8299
8024
8246
8080
8176
8158
8115
8205
8082
8208
8099
8179
8144
8128
8195
8071
8254
8049
8247
8061
8209
8120
8140
8183
8070
8253
8018
8299
8009
8294
8044
8249
8102
8179
8160
8113
8172
8091
8161
8123
8154
8201
8088
8252
8032
8300
8013
8299
8025
8240
8076
8177
8160
8114
8214
8061
8249
8056
8237
8082
8188
8143
8128
8200
8092
8212
8081
8192
8145
8150
8201
8069
8264
8017
8312
7990
8303
8005
8251
8066
8192
8146
8142
8192
8101
8204
8108
8174
8139
8123
8202
8066
8261
8050
8276
8056
8235
8107
8172
8176
8099
8240
8045
8283
8024
8285
8038
8238
8087
8188
8151
8126
8183
8099
8197
8124
8154
8182
8082
8234
8029
8291
7997
8304
8017
8265
8071
8208
8151
8129
8199
8065
8226
8064
8232
8088
8168
8140
8122
8214
8091
8234
8084
8220
8127
8161
8176
8074
8251
8028
8305
8002
8311
8009
8278
8064
8212
8138
8151
8185
8106
8205
8107
8181
8148
8120
8211
8062
8258
8038
8281
8032
8248
8077
8192
8152
8115
8216
8051
8259
8029
8274
8043
8227
8098
8178
8149
8113
8203
8109
8202
8121
8163
8178
8094
8244
8034
8297
8001
8314
8008
8281
8049
8220
8124
8154
8187
8095
8224
8077
8227
8098
8168
8139
8109
8204
8067
8226
8056
8220
8085
8172
8161
8110
8226
8038
8291
8005
8313
8017
8283
8062
8227
8134
8159
8173
8098
8179
8097
8157
8129
8110
8204
8060
8267
8037
8296
8030
8275
8064
8215
8135
8149
8216
8082
8252
8047
8270
8051
8237
8097
8173
8146
8110
8180
8086
8201
8099
8170
8160
8111
8228
8041
8286
7999
8312
8001
8299
8041
8233
8113
8167
8176
8108
8213
8083
8208
8101
8164
8147
8108
8206
8056
8258
8052
8243
8075
8194
8144
8126
8213
8055
8261
8017
8300
8017
8283
8059
8225
8108
8167
8168
8111
8185
8111
8180
8140
8116
8200
8065
8269
8023
8304
8010
8295
8046
8232
8123
8175
8196
8086
8233
8039
8236
8047
8207
8087
8149
8136
8097
8185
8077
8203
8091
8187
8156
8128
8224
8060
8291
8015
8331
8012
8319
8048
8258
8102
8190
8168
8122
8205
8098
8219
8124
8164
8165
8113
8224
8062
8268
8040
8251
8056
8211
8124
8140
8199
8070
8255
8026
8288
8019
8274
8042
8218
8109
8158
8173
8113
8187
8104
8186
8151
8140
8207
8070
8275
8012
8298
7995
8292
8029
8242
8090
8178
8165
8114
8219
8065
8239
8065
8211
8097
8153
8158
8107
8219
8079
8224
8081
8189
8140
8140
8198
8057
8259
8007
8311
7999
8304
8029
8257
8090
8199
8160
8134
8191
8092
8180
8103
8146
8144
8099
8221
8052
8269
8024
8266
8049
8228
8110
8167
8179
8108
8253
8048
8296
8049
8286
8073
8234
8125
8160
8158
8113
8191
8103
8188
8128
8139
8194
8070
8255
8014
8304
8000
8301
8016
8251
8077
8191
8152
8126
8205
8075
8230
8080
8221
8109
8154
8162
8103
8228
8070
8234
8073
8206
8116
8155
8183
8073
8253
8021
8309
8006
8299
8023
8249
8068
8189
8139
8129
8191
8104
8188
8115
8171
8168
8105
8228
8045
8269
8019
8292
8033
8248
8097
8191
8168
8116
8226
8054
8262
8035
8264
8063
8218
8113
8148
8162
8100
8204
8098
8198
8141
8161
8196
8084
8257
8025
8308
7994
8307
8005
8262
8058
8208
8136
8151
8192
8088
8214
8080
8205
8121
8151
8184
8106
8237
8064
8247
8057
8222
8105
8162
8166
8094
8235
8027
8296
8011
8305
8024
8271
8073
8209
8147
8135
8192
8111
8199
8113
8163
8170
8100
8220
8042
8280
8012
8293
8020
8268
8072
8209
8145
8133
8206
8062
8239
8048
8264
8078
8221
8122
8152
8173
8119
8232
8104
8218
8130
8165
8178
8088
8242
8023
8290
7988
8301
8002
8281
8042
8214
8116
8155
8182
8100
8209
8097
8190
8119
8135
8174
8079
8229
8042
8250
8033
8237
8079
8185
8152
8115
8222
8043
8269
8016
8298
8034
8268
8068
8208
8127
8135
8179
8103
8198
8109
8165
8160
8103
8224
8053
8292
8012
8304
8010
8276
8043
8211
8124
8149
8189
8075
8229
8053
8252
8078
8209
