EMG
7880
8092
7870
8072
7935
7987
8034
7900
8112
7829
8156
7829
8135
7895
8038
8014
7896
8134
7796
8211
7752
8235
7781
8167
7860
8046
7963
7952
8046
7904
8066
7928
8034
8016
7945
8135
7845
8229
7787
8280
7798
8226
7875
8131
8004
8002
8122
7900
8187
7861
8190
7894
8114
7975
8015
8065
7934
8125
7901
8138
7947
8060
8052
7935
8160
7814
8242
7756
8279
7751
8220
7827
8117
7950
8003
8053
7929
8109
7910
8086
7955
8012
8065
7931
8178
7870
8238
7861
8216
7924
8134
8042
7998
8155
7884
8242
7818
8268
7835
8213
7909
8117
8010
8004
8089
7951
8110
7953
8072
8028
7970
8140
7859
8230
7790
8279
7776
8242
7836
8146
7954
8022
8068
7909
8144
7858
8154
7881
8086
7963
7997
8065
7918
8131
7883
8148
7921
8088
8025
7966
8156
7873
8260
7796
8309
7793
8265
7860
8167
7961
8044
8056
7960
8105
7935
8096
7978
8025
8066
7916
8172
7841
8220
7809
8207
7852
8133
7986
8012
8096
7875
8191
7812
8212
7809
8172
7885
8075
7975
7982
8070
7928
8100
7937
8070
8012
7981
8133
7883
8240
7805
8305
7792
8278
7836
8188
7944
8073
8077
7962
8151
7905
8160
7925
8106
8001
8013
8087
7925
8162
7875
8179
7907
8119
8009
8016
8124
7876
8227
7785
8274
7763
8231
7815
8145
7912
8032
8025
7943
8080
7923
8083
7969
8024
8068
7923
8181
7847
8273
7825
8267
7870
8195
7967
8068
8093
7944
8200
7869
8235
7861
8209
7929
8120
8025
8019
8104
7954
8146
7945
8110
8016
8016
8122
7895
8229
7802
8291
7764
8265
7789
8178
7891
8061
8008
7946
8105
7895
8126
7911
8083
7995
8002
8088
7909
8175
7873
8205
7896
8166
7988
8057
8124
7931
8229
7839
8282
7809
8280
7852
8199
7960
8082
8053
7992
8113
7951
8112
7992
8042
8074
7937
8182
7838
8267
7797
8266
7817
8196
7916
8077
8038
7947
8139
7859
8180
7838
8145
7893
8071
7990
7977
8080
7919
8134
7918
8123
7980
8037
8112
7928
8232
7839
8319
7799
8323
7829
8242
7923
8127
8029
8013
8124
7952
8147
7950
8107
8018
8010
8115
7918
8201
7857
8225
7867
8179
7937
8070
8062
7934
8170
7821
8225
7779
8235
7823
8164
7919
8049
8016
7972
8093
7937
8099
7970
8045
8067
7953
8192
7862
8286
7809
8312
7832
8248
7918
8138
8038
8016
8144
7923
8202
7896
8178
7938
8099
8035
8003
8112
7930
8178
7912
8145
7970
8068
8079
7936
8193
7817
8263
7762
8280
7780
8208
7867
8109
7975
8002
8073
7935
8111
7938
8079
8001
7993
8108
7906
8213
7849
8250
7858
8213
7930
8120
8053
7997
8165
7879
8246
7835
8260
7872
8194
7952
8087
8050
7991
8119
7948
8119
7976
8060
8065
7960
8180
7845
8257
7779
8294
7792
8241
7856
8140
7985
8024
8094
7914
8158
7890
8145
7931
8079
8021
7979
8119
7914
8182
7899
8175
7956
8104
8067
7984
8196
7873
8272
7797
8299
7807
8249
7890
8155
7998
8039
8088
7969
8127
7962
8089
8018
8003
8123
7909
8221
7835
8266
7823
8228
7885
8131
8000
8004
8118
7892
8204
7846
8231
7856
8168
7938
8074
8038
7986
8115
7939
8133
7968
8094
8058
7979
8171
7872
8275
7807
8322
7800
8277
7864
8178
7971
8064
8086
7956
8164
7927
8153
7959
8094
8050
7993
8135
7912
8199
7876
8195
7924
8129
8032
8007
8153
7891
8250
7815
8294
7814
8251
7878
8156
7981
8044
8070
7968
8111
7953
8099
8019
8017
8125
7917
8225
7839
8291
7821
8272
7874
8187
7983
8058
8104
7930
8187
7871
8219
7881
8166
7951
8075
8053
7988
8128
7939
8160
7956
8117
8042
8003
8156
7888
8255
7809
8317
7790
8296
7847
8201
7952
8084
8074
7986
8149
7944
8147
7972
8086
8050
7989
8144
7897
8215
7865
8225
7891
8148
7997
8037
8119
7907
8226
7834
8283
7819
8254
7880
8165
7982
8055
8079
7983
8122
7963
8107
8019
8031
8120
7918
8224
7836
8300
7809
8285
7857
8213
7958
8105
8089
7979
8183
7905
8208
7901
8164
7960
8077
8066
7986
8146
7931
8175
7929
8129
8005
8026
8129
7910
8241
7815
8306
7789
8303
7836
8214
7933
8100
8045
8001
8138
7955
8138
7979
8084
8058
7991
8165
7899
8238
7845
8240
7874
8193
7963
8080
8098
7949
8213
7872
8276
7856
8266
7901
8181
7988
8069
8081
7980
8127
7954
8117
8006
8045
8110
7928
8210
7828
8287
7781
8301
7820
8231
7916
8119
8047
7993
8146
7916
8188
7914
8158
7981
8073
8073
7983
8158
7918
8195
7909
8149
7983
8067
8104
7943
8234
7848
8321
7814
8319
7846
8242
7935
8126
8037
8024
8127
7969
8136
7991
8090
8052
7987
8163
7888
8243
7829
8264
7842
8215
7920
8103
8053
7974
8177
7882
8238
7851
8239
7886
8162
7981
8062
8083
7980
8145
7959
8146
7996
8071
8104
7961
8217
7860
8312
7808
8335
7835
8272
7914
8169
8047
8052
8143
7955
8180
7937
8149
7989
8076
8090
7980
8164
7902
8218
7900
8188
7959
8100
8069
7960
8193
7859
8275
7813
8306
7838
8251
7928
8151
8029
8038
8114
7978
8131
7980
8094
8060
8005
8177
7902
8270
7841
8308
7848
8262
7919
8170
8049
8052
8177
7943
8243
7894
8250
7919
8184
7997
8074
8092
7978
8155
7947
8151
7967
8084
8060
7955
8178
7847
8267
7787
8308
7792
8261
7871
8165
7983
8050
8097
7960
8156
7937
8136
7990
8064
8077
7962
8178
7890
8230
7872
8212
7935
8139
8053
8023
8182
7899
8277
7838
8312
7856
8250
7923
8153
8020
8045
8109
7972
8133
7973
8084
8038
7992
8136
7871
8226
7802
8293
7803
8261
7859
8167
7979
8043
8105
7930
8182
7880
8209
7916
8141
7991
8050
8090
7969
8158
7932
8183
7961
8128
8064
8021
8192
7910
8295
7825
8336
7819
8308
7886
8213
7991
8102
8116
8006
8172
7980
8157
8019
8076
8091
7965
8187
7870
8246
7834
8219
7887
8157
8012
8041
8133
7914
8231
7846
8277
7853
8238
7920
8144
8021
8041
8109
7978
8150
7981
8119
8044
8024
8167
7925
8265
7844
8341
7836
8324
7884
8237
7989
8103
8114
7994
8201
7936
8215
7954
8159
8014
8067
8110
7972
8177
7915
8194
7928
8131
8026
8023
8150
7903
8254
7824
8315
7803
8301
7862
8205
7966
8103
8069
8001
8135
7976
8144
8019
8081
8104
7984
8215
7900
8292
7854
8289
7909
8224
8023
8112
8145
7989
8241
7902
8299
7892
8263
7953
8176
8036
8063
8120
7985
8158
7969
8132
8025
8028
8132
7919
8242
7821
8314
7796
8312
7837
8230
7938
8118
8074
8001
8155
7932
8193
7947
8135
8018
8052
8113
7961
8193
7908
8223
7929
8181
8015
8076
8151
7955
8263
7878
8334
7835
8315
7880
8226
7966
8121
8072
8020
8137
7975
8134
8005
8057
8082
7959
8185
7857
8268
7814
8272
7847
8210
7931
8101
8073
7975
8179
7888
8241
7878
8223
7932
8145
8028
8041
8127
7981
8177
7963
8165
8017
8074
8129
7938
8247
7858
8339
7822
8353
7859
8276
7955
8165
8067
8040
8157
7971
8189
7964
8131
8019
8047
8120
7949
8205
7886
8238
7899
8200
7970
8096
8090
7959
8209
7856
8277
7818
8288
7853
8211
7948
8109
8050
8018
8129
7976
8141
8006
8080
8094
7985
8211
7885
8303
7841
8329
7866
8278
7949
8163
8074
8037
8180
7944
8232
7909
8231
7952
8140
8041
8044
8128
7956
8160
7931
8152
7982
8071
8096
7946
8212
7850
8308
7798
8329
7830
8260
7916
8160
8029
8038
8125
7971
8172
7968
8128
8037
8046
8125
7947
8225
7891
8268
7896
8235
7966
8147
8100
8029
8219
7915
8295
7873
8312
7898
8245
7966
8143
8078
8037
8138
7979
8144
7988
8079
8081
7976
8183
7868
8283
7809
8316
7820
8263
7902
8172
8028
8047
8142
7948
8208
7924
8204
7959
8135
8050
8043
8144
7962
8209
7938
8200
7989
8123
8105
8020
8233
7909
8338
7852
8360
7855
8310
7925
8198
8034
8087
8134
8000
8173
7986
8129
8026
8032
8125
7922
8217
7855
8269
7848
8241
7918
8159
8041
8036
8164
7919
8244
7860
8273
7877
8216
7953
8124
8063
8025
8131
7974
8167
7988
8109
8082
8013
8204
7912
8315
7849
8360
7853
8332
7909
8220
8029
8103
8142
7989
8203
7957
8207
7984
8139
8058
8034
8142
7932
8192
7887
8194
7934
8124
8045
8014
8172
7897
8269
7825
8316
7826
8286
7901
8190
8001
8075
8101
8004
8146
7986
8132
8039
8051
8153
7950
8254
7877
8315
7867
8296
7916
8214
8038
8096
8164
7974
8250
7907
8281
7910
8224
7976
8118
8069
8024
8137
7957
8164
7967
8114
8055
8010
8162
7903
8267
7819
8332
7799
8312
7862
8219
7972
8105
8094
7996
8175
7958
8176
7986
8120
8066
8032
8179
7949
8259
7920
8258
7948
8200
8057
8076
8177
7949
8284
7874
8336
7852
8303
7916
8212
8007
8103
8101
8011
8150
7984
8122
8029
8045
8127
7939
8228
7849
8307
7822
8292
7870
8213
7974
8103
8101
7974
8198
7911
8250
7918
8217
7983
8121
8085
8029
8161
7974
8211
7977
8165
8057
8071
8175
7949
8290
7864
8360
7838
8352
7882
8265
7980
8148
8098
8033
8169
7983
8186
7994
8109
8062
8018
8161
7918
8242
7873
8244
7894
8191
7996
8079
8115
7948
8230
7862
8294
7853
8286
7902
8202
7996
8092
8101
8017
8158
7992
8156
8037
8076
8138
7970
8255
7876
8331
7843
8348
7878
8277
7982
8164
8106
8043
8198
7946
8239
7938
8201
7982
8103
8068
8008
8154
7933
8194
7934
8156
7998
8064
8122
7943
8242
7851
8326
7815
8330
7850
8256
7948
8147
8054
8036
8151
7987
8162
8008
8126
8086
8038
8187
7938
8277
7884
8305
7907
8247
7985
8150
8115
8023
8223
7917
8290
7879
8290
7915
8211
8001
8096
8099
8008
8151
7976
8147
8008
8080
8110
7963
8225
7863
8315
7815
8335
7837
8270
7917
8167
8059
8052
8157
7963
8211
7950
8185
8002
8113
8099
8024
8192
7945
8237
7937
8213
7998
8127
8124
8007
8248
7899
8331
7844
8342
7864
8281
7943
8175
8055
8060
8142
8000
8164
7998
8109
8064
8014
8169
7913
8264
7849
8304
7863
8262
7942
8167
8065
8041
8184
7929
8257
7891
8276
7917
8200
8007
8109
8106
8021
8172
7981
8180
8014
8122
8115
7997
8231
7899
8337
7835
8356
7848
8303
7922
8203
8039
8085
8139
7983
8196
7961
8176
8006
8104
8101
8010
8195
7929
8245
7916
8233
7976
8149
8083
8019
8200
7911
8293
7849
8331
7857
8283
7930
8172
8038
8062
8118
8002
8166
8012
8139
8080
8042
8187
7937
8285
7865
8336
7858
8289
7924
8199
8047
8080
8165
7965
8238
7913
8260
7933
8193
8007
8089
8100
8000
8170
7956
8180
7990
8124
8092
8010
8205
7897
8305
7835
8353
7840
8329
7893
8215
8004
8099
8119
8003
8181
7979
8173
8021
8106
8106
8010
8207
7924
8279
7903
8261
7954
8189
8059
8063
8178
7939
8282
7869
8322
7866
8280
7931
8181
8036
8074
8127
7999
8159
8005
8139
8057
8038
8176
7939
8282
7860
8339
7829
8310
7897
8227
8014
8109
8137
7996
8224
7950
8248
7953
8201
8031
8096
8126
8008
8219
7964
8219
7988
8170
8081
8062
8194
7935
8297
7851
8364
7838
8333
7892
8240
7993
8125
8118
8025
8176
7986
8162
8026
8100
8111
8001
8211
7914
8289
7881
8279
7913
8203
8020
8091
8148
7967
8253
7893
8308
7881
8279
7943
8191
8043
8077
8133
8010
8173
8005
8155
8063
8057
8174
7956
8284
7871
8360
7846
8347
7886
8262
7986
8142
8109
8018
8198
7956
8226
7954
8166
8025
8087
8116
7982
8192
7935
8228
7954
8176
8037
8077
8156
7946
8269
7861
8337
7828
8330
7882
8241
7978
8134
8102
8037
8162
7994
8161
8026
8105
8126
8009
8223
7912
8306
7872
8319
7908
8242
7998
8132
8128
8007
8229
7915
8280
7903
8270
7945
8182
8034
8070
8126
7992
8171
7977
8158
8037
8080
8164
7968
8262
7863
8344
7825
8351
7860
8261
7943
8152
8077
8051
8174
7971
8216
7982
8182
8051
8091
8153
7990
8230
7930
8257
7942
8222
8030
8121
8149
8001
8267
7888
8333
7850
8325
7877
8246
7970
8146
8078
8044
8152
7993
8155
8017
8099
8112
8004
8217
7908
8307
7857
8324
7872
8267
7963
8164
8093
8045
8206
7941
8265
7914
8258
7955
8176
8048
8073
8140
8004
8206
7978
8188
8038
8119
8155
7995
8260
7883
8341
7833
8357
7854
8291
7941
8189
8065
8078
8162
7990
8193
7978
8156
8038
8072
8147
7981
8248
7921
8282
7922
8245
7980
8137
8101
8013
8222
7905
8303
7860
8326
7890
8258
7973
8153
8084
8055
8162
8017
8183
8033
8128
8119
8025
8223
7915
8320
7856
8350
7860
8295
7938
8192
8065
8070
8179
7969
8246
7934
8246
7970
8180
8050
8064
8142
7981
8201
7946
8191
7996
8120
8102
7994
8230
7890
8327
7837
8354
7842
8296
7923
8204
8032
8089
8150
8013
8194
7998
8156
8062
8086
8165
7990
8263
7916
8311
7898
8267
7966
8181
8084
8059
8207
7947
8288
7880
8315
7902
8256
7975
8159
8071
8052
8148
8004
8179
8011
8131
8099
8026
8211
7917
8315
7848
8354
7845
8309
7910
8217
8038
8102
8156
7991
8222
7950
8246
7982
8171
8069
8079
8172
7992
8252
7962
8234
7994
8165
8099
8054
8221
7930
8321
7855
8354
7852
8321
7919
8218
8016
8106
8129
8022
8176
8001
8153
8052
8073
8158
7975
8250
7898
8318
7882
8296
7933
8205
8043
8089
8173
7962
8260
7896
8301
7909
8257
7982
8158
8076
8054
8158
8000
8201
8017
8152
8103
8064
8214
7938
8307
7863
8357
7835
8343
7898
8246
8002
8122
8128
8016
8204
7968
8210
7984
8147
8062
8053
8165
7960
8240
7931
8245
7959
8178
8060
8066
8184
7943
8288
7861
8342
7853
8320
7911
8226
8022
8125
8131
8027
8180
8010
8162
8053
8082
8162
7986
8263
7901
8334
7867
8326
7908
8237
8026
8118
8141
7996
8241
7921
8283
7924
8246
7986
8154
8078
8048
8159
7986
8203
7989
8162
8072
8071
8187
7945
8289
7864
8366
7833
8351
7890
8270
7989
8158
8119
8047
8193
7995
8219
8017
8169
8088
8062
8187
7969
8276
7925
8273
7944
8215
8039
8108
8162
7970
8268
7883
8337
7866
8312
7910
8224
8007
8122
8105
8031
8161
8000
8163
8042
8084
8140
7977
8264
7895
8336
7855
8340
7891
8263
7980
8150
8113
8034
8219
7951
8264
7945
8250
8007
8140
8089
8056
8185
7981
8221
7983
8192
8055
8102
8177
7980
8289
7878
8352
7836
8350
7872
8273
7961
8172
8089
8053
8170
7990
8190
8000
8137
8076
8041
8184
7950
8270
7906
8302
7915
8239
8007
8131
8127
8007
8243
7907
8322
7884
8320
7918
8227
8018
8139
8110
8046
8190
8016
8184
8053
8118
8155
8002
8260
7899
8341
7853
8361
7876
8289
7958
8182
8091
8059
8194
7969
8234
7942
8221
8000
8134
8091
8038
8190
7961
8232
7971
8209
8037
8116
8138
7985
8252
7888
8348
7842
8357
7870
8288
7959
8189
8082
8084
8166
8015
8201
8023
8155
8090
8054
8199
7960
8288
7899
8326
7906
8276
7980
8177
8102
8044
8214
7934
8285
7892
8304
7926
8229
8011
8128
8110
8033
8169
7988
8178
8025
8120
8127
8006
8243
7904
8342
7845
8371
7859
8307
7939
8206
8063
8091
8176
8000
8229
7973
8226
8019
8136
8106
8043
8213
7970
8266
7953
8245
8011
8164
8128
8042
8242
7913
8335
7854
8356
7871
8298
7946
8197
8053
8095
8158
8018
8176
8012
8144
8078
8050
8192
7950
8291
7880
8329
7875
8291
7945
8205
8069
8075
8188
7965
8269
7914
8291
7946
8236
8025
8142
8125
8038
8183
7997
8208
8023
8147
8124
8048
8232
7922
8332
7846
8375
7852
8336
7918
8224
8034
8114
8147
8013
8200
7977
8189
8017
8116
8104
8025
8204
7949
8276
7922
8255
7974
8181
8080
8060
8205
7936
8302
7874
8350
7885
8310
7953
8210
8052
8110
8154
8033
8180
8017
8156
8081
8068
8201
7967
8306
7886
8351
7868
8321
7925
8234
8040
8117
8159
7989
8242
7935
8270
7946
8220
8012
8111
8113
8017
8185
7973
8215
7998
8155
8085
8051
8201
7942
8311
7857
8371
7842
8343
7904
8254
8010
8135
8129
8039
8201
8000
8188
8033
8124
8113
8028
8221
7944
8305
7918
8298
7959
8225
8067
8104
8184
7971
8283
7893
8335
7888
8301
7950
8206
8033
8097
8130
8016
8170
8007
8159
8068
8079
8180
7961
8282
7878
8360
7861
8351
7899
8266
8008
8140
8134
8031
8216
7961
8248
7962
8212
8036
8119
8129
8027
8228
7980
8250
7990
8199
8079
8096
8186
7961
8298
7872
8364
7848
8351
7900
8265
7993
8151
8104
8045
8175
7999
8174
8027
8117
8111
8026
8219
7926
8303
7898
8313
7918
8243
8026
8133
8145
8014
8255
7916
8314
7897
8291
7944
8204
8048
8101
8150
8031
8202
8013
8188
8085
8113
8185
7988
8290
7893
8364
7849
8362
7886
8283
7975
8171
8098
8061
8205
7981
8233
7972
8196
8029
8106
8127
8004
8225
7947
8253
7957
8217
8039
8116
8154
7981
8272
7892
8361
7860
8355
7894
8277
7985
8167
8103
8065
8177
8022
8183
8044
8138
8133
8036
8230
7938
8321
7889
8337
7893
8274
7985
8174
8119
8036
8217
7937
8284
7908
8281
7957
8203
8042
8091
8136
8013
8200
7999
8193
8053
8116
8143
7986
8265
7890
8353
7849
8367
7864
8296
7956
8199
8084
8087
8188
8007
8236
8009
8217
8066
8117
8163
8021
8256
7943
8283
7938
8234
8003
8138
8129
8015
8251
7909
8337
7866
8342
7898
8274
7979
8171
8080
8062
8167
8014
8168
8029
8134
8127
8032
8224
7933
8318
7873
8349
7881
8297
7959
8189
8092
8066
8206
7969
8279
7937
8279
7979
8209
8061
8099
8164
8015
8236
7999
8212
8040
8144
8148
8030
8260
7911
8364
7851
8371
7865
8311
7935
8207
8049
8085
8152
8006
8204
7991
8173
8053
8097
8152
7996
8255
7933
8305
7920
8265
7985
8178
8107
8058
8230
7936
8311
7887
8342
7903
8283
7982
8178
8090
8076
8175
8027
8197
8042
8156
8126
8044
8231
7942
8330
7870
8366
7867
8315
7934
8225
8059
8098
8175
7990
8250
7952
8250
7971
8180
8054
8084
8160
7994
8237
7970
8224
8011
8151
8117
8038
8232
7918
8346
7867
8380
7861
8327
7925
8224
8039
8125
8149
8039
8203
8018
8187
8068
8101
8170
8005
8274
7930
8320
7907
8290
7957
8204
8079
8080
8200
7962
8286
7899
8328
7915
8280
7979
8179
8079
8070
8169
8005
8187
8018
8144
8094
8057
8209
7934
8314
7865
8373
7857
8344
7919
8241
8034
8129
8153
8018
8232
7973
8255
7995
8194
8076
8089
8182
8007
8257
7969
8255
8000
8187
8095
8068
8217
7943
8318
7869
8360
7866
8329
7919
8228
8026
8127
8133
8034
8181
8011
8172
8066
8105
8171
8005
8283
7924
8337
7892
8307
7931
8235
8049
8113
8177
7993
8269
7917
8309
7924
8274
7995
8186
8091
8078
8183
8020
8214
8024
8177
8105
8081
8213
7967
8314
7877
8375
7849
8362
7904
8272
8020
8150
8134
8036
8213
7985
8225
7997
8170
8071
8072
8179
7978
8260
7939
8266
7969
8206
8067
8095
8193
7976
8297
7884
8355
7875
8339
7923
8250
8022
8139
8130
8048
8190
8028
8184
8068
8114
8176
8012
8268
7918
8345
7879
8341
7916
8258
8025
8151
8150
8027
8239
7936
8288
7935
8260
7996
8171
8083
8068
8186
8007
8223
8000
8186
8074
8092
8192
7972
8303
7881
8378
7851
8368
7893
8275
7984
8162
8108
8072
8195
8001
8215
8016
8177
8091
8078
8196
7986
8284
7937
8290
7948
8236
8047
8134
8163
8008
8274
7907
8345
7882
8324
7928
8252
8009
8128
8101
8035
8170
8008
8179
8050
8112
8159
8004
8263
7910
8344
7869
8358
7899
8285
7986
8174
8120
8059
8221
7968
8265
7951
8254
8012
8173
8097
8068
8203
8008
8250
7996
8216
8060
8126
8174
7998
8285
7895
8369
7850
8372
7887
8296
7967
8181
8090
8085
8180
8012
8201
8018
8167
8089
8069
8199
7970
8290
7920
8310
7918
8253
8006
8166
8137
8042
8246
7933
8325
7896
8332
7935
8256
8021
8148
8130
8055
8196
8019
8193
8054
8132
8154
8016
8261
7921
8357
7862
8364
7875
8310
7960
8203
8089
8081
8191
7979
8243
7952
8230
8008
8138
8097
8049
8199
7976
8242
7967
8222
8028
8150
8147
8025
8260
7904
8355
7865
8375
7884
8318
7968
8209
8083
8096
8170
8031
8210
8040
8173
8103
8073
8209
7981
8308
7905
8337
7906
8290
7972
8185
8101
8062
8222
7954
8288
7908
8309
7932
8245
8023
8150
8119
8053
8201
8009
8205
8036
8132
8132
8023
8240
7916
8339
7855
8379
7867
8329
7946
8228
8067
8113
8169
8010
8237
7985
8234
8022
8145
8116
8057
8220
7986
8285
7961
8254
8008
8176
8121
8045
8232
7930
8323
7865
8366
7879
8313
7952
8203
8054
8104
8163
8032
8199
8034
8173
8102
8069
8199
7975
8299
7896
8353
7886
8311
7951
8217
8076
8106
8196
7984
8284
7940
8304
7953
8239
8033
8148
8125
8054
8213
8006
8224
8039
8173
8131
8067
8244
7938
8338
7861
8379
7856
8344
7921
8246
8041
8127
8150
8023
8207
7989
8207
8028
8151
8117
8048
8223
7961
8289
7939
8276
7982
8199
8091
8079
8211
7952
8309
7890
8361
7897
8331
7970
8231
8070
8126
8165
8048
8208
8036
8173
8093
8097
8199
7969
8310
7897
8364
7882
8349
7922
8253
8041
8128
8161
8008
8242
7944
8279
7957
8229
8033
8146
8125
8035
8221
7990
8231
8000
8175
8098
8068
8212
7951
8317
7869
8380
7851
8355
7916
8271
8025
8157
8137
8053
8211
8007
8220
8052
8138
8137
8047
8242
7968
8319
7937
8305
7957
8226
8062
8107
8181
7979
8285
7903
8343
7890
8308
7944
8209
8047
8106
8158
8032
8191
8024
8180
8080
8094
8196
7983
8303
7895
8369
7866
8360
7908
8271
8016
8158
8143
8042
8229
7971
8263
7977
8224
8053
8137
8160
8054
8248
7995
8259
7999
8201
8072
8092
8193
7966
8298
7880
8372
7856
8358
7901
8270
7998
8157
8113
8057
8194
8018
8186
8045
8145
8137
8037
8235
7951
8320
7900
8329
7928
8253
8036
8141
8164
8027
8274
7933
8334
7914
8310
7969
8224
8061
8114
8167
8041
8227
8023
8198
8089
8117
8192
7994
8296
7900
8366
7852
8367
7889
8292
7982
8181
8112
8059
8202
7984
8241
7978
8216
8064
8126
8161
8030
8244
7960
8265
7972
8221
8051
8113
8171
7995
8279
7891
8362
7863
8356
7902
8286
8007
8182
8123
8076
8189
8034
8197
8055
8157
8150
8047
8245
7948
8329
7893
8341
7908
8277
8005
8165
8123
8045
8233
7946
8290
7917
8286
7965
8208
8055
8105
8159
8029
8216
8013
8210
8072
8125
8174
8004
8286
7908
8371
7864
8382
7884
8317
7974
8201
8093
8092
8193
8016
8239
8011
8215
8071
8125
8170
8031
8259
7958
8299
7966
8260
8030
8158
8151
8031
8265
7926
8345
7868
8353
7900
8284
7981
8181
8095
8069
8176
8030
8195
8047
8148
8135
8046
8237
7943
8330
7881
8359
7897
8310
7980
8212
8105
8082
8216
7979
8281
7945
8290
7993
8224
8077
8109
8170
8033
8247
8006
8220
8039
8139
8148
8031
8266
7918
8358
7857
8384
7871
8338
7949
8217
8065
8110
8168
8017
8217
8008
8185
8063
8116
8171
8018
8264
7950
8313
7936
8281
7998
8186
8123
8071
8236
7946
8325
7895
8353
7908
8296
8000
8198
8098
8092
8182
8038
8207
8049
8160
8138
8060
8237
7949
8338
7879
8374
7876
8325
7936
8220
8054
8097
8176
7991
8251
7953
8266
7984
8198
8070
8100
8181
8019
8251
7983
8235
8019
8168
8127
8060
8245
7935
8352
7865
8382
7873
8341
7948
8244
8062
8129
8156
8049
8218
8023
8200
8079
8119
8181
8016
8279
7939
8336
7920
8299
7967
8206
8079
8076
8198
7965
8295
7903
8329
7914
8288
7991
8189
8091
8083
8177
8025
8209
8035
8164
8116
8070
8226
7955
8334
7878
8385
7866
8354
7925
8261
8051
8143
8167
8039
8247
7991
8269
8011
8197
8083
8097
8195
8012
8268
7975
8264
8006
8194
8098
8084
8218
7956
8322
7875
8371
7864
8343
7921
8243
8025
8130
8131
8043
8193
8019
8190
8070
8110
8173
8006
8283
7925
8344
7896
8335
7945
8250
8062
8136
8177
8017
8274
7934
8322
7939
8294
8007
8205
8104
8090
8196
8031
8221
8027
8181
8107
8091
8212
7966
8310
7881
8386
7858
8362
7898
8273
8008
8156
8129
8056
8216
7992
8249
8006
8186
8092
8094
8196
7999
8275
7952
8281
7978
8231
8081
8119
8196
7990
8300
7905
8369
7887
8350
7927
8262
8027
8149
8139
8052
8195
8034
8195
8077
8132
8175
8013
8274
7920
8346
7881
8348
7916
8277
8020
8157
8140
8040
8244
7948
8294
7942
8268
7997
8184
8095
8076
8189
8014
8228
8006
8199
8083
8113
8196
7988
8306
7891
8382
7856
8379
7893
8298
7998
8197
8117
8092
8201
8021
8246
8035
8192
8102
8093
8210
7994
8291
7943
8311
7951
8248
8042
8147
8156
8012
8271
7912
8334
7883
8332
7924
8260
8020
8160
8131
8060
8193
8028
8191
8066
8131
8162
8019
8269
7925
8351
7875
8371
7899
8302
7987
8196
8110
8077
8223
7992
8280
7975
8277
8021
8179
8108
8084
8215
8013
8243
7987
8222
8058
8136
8165
8018
8285
7911
8370
7860
8372
7887
8304
7968
8201
8085
8093
8182
8027
8214
8030
8176
8095
8081
8201
7986
8296
7926
8333
7935
8284
8018
8184
8133
8061
8251
7955
8341
7913
8337
7941
8261
8022
8163
8135
8069
8202
8030
8213
8060
8147
8153
8030
8255
7926
8349
7865
8382
7880
8326
7960
8223
8082
8104
8196
8003
8246
7973
8247
8017
8170
8110
8062
8210
7993
8267
7974
8249
8022
8168
8142
8048
8265
7932
8360
7874
8382
7891
8331
7970
8234
8088
8127
8182
8046
8218
8054
8187
8105
8088
8205
7986
8307
7914
8346
7905
8300
7963
8202
8091
8086
8210
7967
8282
7916
8316
7941
8263
8021
8154
8123
8065
8204
8025
8215
8044
8162
8133
8055
8245
7942
8354
7870
8388
7868
8353
7946
8252
8063
8133
8168
8023
8239
8000
8253
8043
8173
8124
8073
8232
7991
8296
7959
8266
8001
8193
8109
8072
8224
7947
8319
7877
8362
7886
8323
7953
8231
8056
8121
8158
8036
8201
8036
8178
8098
8087
8193
7985
8311
7901
8358
7889
8329
7950
8250
8067
8123
8188
8007
8270
7945
8310
7966
8261
8040
8170
8137
8070
8217
8015
8237
8035
8183
8115
8072
8225
7942
8334
7868
8380
7864
8358
7920
8265
8035
8142
8141
8040
8214
8005
8227
8040
8158
8123
8056
8225
7970
8303
7940
8295
7975
8223
8086
8111
8206
7984
8312
7905
8365
7898
8333
7968
8241
8057
8138
8164
8061
8212
8038
8192
8095
8101
8190
7984
8309
7902
8369
7875
8357
7924
8266
8023
8150
8152
8032
8239
7955
8277
7966
8248
8037
8155
8133
8055
8235
7997
8246
8004
8199
8094
8103
8217
7988
8330
7891
8390
7860
8365
7907
8275
8008
8165
8132
8066
8210
8029
8226
8050
8157
8140
8059
8238
7974
8317
7922
8318
7950
8242
8047
8131
8170
8011
8281
7920
8343
7901
8317
7959
8235
8050
8128
8151
8040
8216
8032
8191
8078
8114
8190
8004
8304
7914
8378
7869
8383
7909
8292
7997
8178
8124
8057
8225
7992
8266
7990
8246
8054
8156
8159
8058
8252
7996
8286
7996
8227
8075
8123
8190
7994
8299
7897
8374
7859
8362
7902
8289
7998
8181
8112
8077
8187
8023
8206
8050
8156
8137
8053
8240
7963
8331
7916
8347
7926
8281
8034
8175
8148
8050
8263
7950
8333
7922
8322
7978
8242
8063
8141
8166
8054
8234
8033
8215
8088
8134
8181
8010
8286
7910
8372
7866
8380
7887
8311
7974
8200
8100
8087
8194
7999
8245
7993
8210
8053
8137
8155
8038
8251
7973
8288
7974
8248
8043
8150
8171
8039
8286
7923
8366
7872
8369
7910
8315
7999
8204
8120
8106
8196
8047
8232
8068
8168
8141
8057
8237
7956
8322
7890
8350
7900
8298
7980
8196
8104
8073
8227
7970
8291
7935
8298
7972
8226
8058
8118
8164
8035
8216
8008
8220
8050
8148
8162
8039
8281
7927
8377
7873
8402
7886
8344
7963
8231
8086
8114
8184
8029
8236
8017
8221
8066
8127
8170
8035
8260
7965
8311
7954
8276
8007
8182
8128
8056
8243
7931
8336
7882
8350
7902
8310
7986
8203
8087
8094
8183
8045
8212
8049
8163
8137
8063
8236
7966
8340
7891
8376
7895
8333
7961
8234
8084
8112
8199
8008
8282
7962
8291
7985
8226
8072
8127
8180
8040
8244
8003
8235
8035
8170
8137
8057
8243
7931
8350
7868
8384
7863
8338
7933
8236
8059
8127
8162
8042
8219
8022
8207
8068
8124
8172
8027
8268
7956
8328
7935
8297
7988
8217
8101
8098
8227
7972
8319
7915
8351
7917
8309
7995
8215
8095
8107
8186
8048
8217
8049
8178
8129
8075
8229
7965
8333
7882
8376
7873
8349
7931
8252
8049
8127
8170
8024
8253
7971
8277
7996
8209
8069
8100
8177
8018
8254
7980
8252
8018
8196
8121
8083
8232
7960
8337
7886
8392
7874
8361
7940
8264
8042
8159
8161
8067
8215
8038
8207
8068
8117
8178
8033
8284
7942
8334
7908
8317
7949
8238
8054
8115
8185
7990
8288
7920
8330
7917
8300
7986
8207
8087
8103
8186
8040
8220
8030
8182
8111
8092
8220
7979
8333
7896
8390
7878
8376
7917
8284
8035
8165
8151
8062
8237
7998
8264
8011
8208
8090
8118
8187
8014
8270
7971
8276
7991
8211
8082
8106
8204
7979
8305
7891
8367
7868
8355
7924
8268
8026
8158
8139
8066
8208
8036
8201
8073
8133
8171
8024
8267
7945
8345
7897
8351
7941
8279
8036
8160
8171
8047
8269
7957
8332
7955
8305
8005
8213
8104
8101
8187
8024
8225
8025
8198
8095
8110
8199
7987
8308
7894
8381
7859
8372
7895
8289
7994
8180
8121
8078
8209
8007
8237
8020
8197
8090
8105
8203
8004
8278
7954
8306
7968
8243
8066
8144
8188
8031
8301
7923
8378
7898
8361
7933
8273
8022
8166
8133
8077
8198
8043
8204
8073
8138
8170
8028
8268
7928
8349
7878
8359
7908
8289
8005
8184
8127
8060
8234
7974
8285
7956
8288
8009
8202
8102
8096
8203
8020
8245
8015
8223
8084
8137
8180
8012
8300
7910
8381
7865
8388
7901
8317
7984
8215
8111
8106
8201
8035
8235
8028
8194
8096
8103
8204
8001
8296
7942
8324
7948
8271
8026
8166
8141
8038
8253
7929
8330
7890
8347
7930
8274
8020
8168
8125
8063
8187
8026
8204
8061
8148
8154
8039
8263
7939
8355
7882
8386
7897
8325
7976
8223
8103
8105
8224
8006
8280
7977
8273
8018
8196
8114
8093
8212
8019
8268
7992
8231
8052
8154
8152
8032
8270
7916
8359
7858
8378
7886
8325
7959
8221
8083
8114
8177
8037
8218
8036
8185
8095
8103
8210
8005
8301
7932
8341
7931
8300
7989
8203
8115
8081
8239
7972
8321
7921
8344
7947
8288
8028
8186
8134
8083
8209
8036
8218
8056
8162
8143
8042
8249
7939
8353
7875
8382
7871
8331
7945
8234
8068
8114
8180
8015
8250
7990
8258
8032
8188
8111
8079
8203
7991
8276
7968
8261
8024
8187
8140
8079
8259
7950
8362
7891
8387
7894
8346
7968
8241
8083
8143
8179
8052
8220
8046
8187
8104
8101
8203
7995
8312
7920
8351
7905
8314
7961
8232
8081
8107
8203
7989
8285
7927
8321
7948
8273
8030
8173
8122
8069
8211
8026
8225
8047
8174
8134
8075
8247
7958
8355
7881
8400
7876
8362
7936
8261
8061
8157
8169
8050
8251
8007
8253
8046
8181
8129
8079
8223
7990
8297
7962
8286
7997
8202
8097
8086
8215
7953
8313
7888
8366
7889
8333
7950
8241
8061
8144
8166
8053
8210
8043
8188
8093
8103
8200
7993
8305
7912
8367
7894
8353
7950
8265
8056
8144
8179
8031
8277
7961
8313
7967
8272
8036
8172
8144
8076
8224
8020
8246
8032
8190
8108
8095
8225
7961
8320
7879
8379
7858
8366
7912
8274
8022
8164
8140
8061
8218
8016
8234
8036
8167
8123
8067
8228
7979
8309
7940
8307
7977
8240
8081
8123
8195
8009
8306
7919
8367
7909
8342
7965
8251
8060
8149
8174
8063
8218
8043
8199
8092
8113
8191
8003
8299
7907
8371
7880
8367
7925
8284
8031
8170
8150
8049
8236
7976
8288
7984
8264
8045
8168
8155
8069
8239
8002
8252
7999
8209
8089
8110
8201
7986
8313
7896
8393
7867
8383
7918
8304
8014
8189
8131
8094
8211
8037
8234
8053
8172
8149
8069
8239
7981
8323
7928
8330
7948
8261
8036
8147
8163
8032
8269
7934
8345
7914
8331
7963
8248
8059
8148
8163
8058
8223
8033
8201
8084
8137
8196
8020
8302
7923
8378
7878
8380
7907
8315
7999
8201
8132
8093
8221
8002
8262
7997
8250
8053
8160
8155
8054
8248
7989
8285
7989
8233
8060
8134
8168
8019
8296
7917
8379
7872
8366
7894
8291
7985
8201
8115
8096
8197
8040
8227
8059
8165
8137
8067
8244
7972
8333
7917
8350
7926
8294
8020
8193
8142
8072
8258
7964
8334
7940
8328
7980
8247
8060
8152
8170
8059
8230
8024
8213
8070
8138
8168
8018
8278
7914
8373
7864
8384
7888
8324
7973
8222
8092
8101
8198
8017
8250
7993
8230
8060
8158
8162
8046
8258
7976
8294
7967
8259
8043
8168
8153
8047
8268
7928
8356
7880
8374
7915
8324
8002
8218
8122
8125
8194
8044
8222
8054
8168
8134
8057
8231
7956
8330
7901
8361
7909
8315
7978
8208
8100
8087
8221
7984
8293
7942
8301
7977
8236
8065
8129
8171
8048
8240
8018
8232
8056
8160
8156
8052
8269
7928
8360
7863
8398
7891
8361
7971
8252
8088
8139
8184
8034
8237
8012
8221
8069
8146
8162
8036
8262
7962
8308
7944
8272
8001
8190
8118
8069
8239
7945
8331
7897
8362
7914
8313
7985
8213
8093
8109
8187
8044
8215
8053
8176
8137
8086
8242
7969
8345
7904
8378
7889
8338
7962
8248
8091
8131
8206
8027
8286
7980
8306
7998
8231
8071
8121
8172
8038
8247
8006
8242
8036
8179
8137
8063
8245
7938
8349
7868
8394
7879
8360
7945
8256
8065
8146
8168
8054
8222
8031
8220
8075
8141
8177
8041
8278
7957
8329
7932
8306
7986
8231
8104
8106
8228
7985
8325
7927
8363
7930
8318
7998
8218
8091
8105
8190
8045
8216
8049
8181
8123
8083
8225
7964
8341
7898
8386
7877
8364
7934
8259
8046
8133
8160
8019
8246
7979
8275
8000
8219
8077
8117
8185
8028
8266
7994
8266
8027
8214
8124
8093
8240
7962
8337
7893
8397
7881
8363
7938
8275
8060
8164
8158
8062
8206
8029
8209
8079
8136
8167
8025
8264
7938
8336
7913
8319
7954
8241
8064
8126
8196
8013
8294
7940
8340
7933
8312
8004
8212
8097
8111
8194
8039
8226
8048
8199
8118
8103
8220
7982
8326
7899
8396
7872
8373
7922
8292
8040
8171
8163
8071
8242
8003
8274
8021
8218
8092
8122
8196
8022
8269
7970
8271
7986
8211
8090
8109
8202
7976
8307
7897
8372
7877
8357
7933
8276
8032
8166
8150
8076
8210
8042
8208
8080
8140
8182
8023
8279
7943
8356
7900
8357
7942
8283
8044
8156
8170
8041
8273
7957
8327
7947
8302
8008
8212
8104
8103
8199
8031
8233
8030
8210
8099
8111
8206
7986
8311
7895
8385
7858
8381
7907
8299
8000
8191
8131
8088
8215
8020
8244
8027
8206
8100
8112
8200
8018
8290
7966
8314
7979
8251
8073
8144
8184
8025
8301
7925
8376
7895
8366
7939
8289
8040
8180
8143
8082
8208
8042
8207
8071
8140
8172
8029
8267
7923
8354
7889
8369
7915
8300
8017
8187
8141
8070
8248
7983
8304
7960
8282
8010
8202
8097
8085
8198
8025
8255
8022
8217
8079
8136
8188
8015
8309
7918
8394
7880
8395
7902
8321
7993
8218
8120
8110
8211
8036
8238
8038
8201
8101
8105
8204
8000
8287
7933
8314
7945
8270
8033
8163
8147
8032
8263
7932
8350
7902
8351
7934
8280
8025
8175
8135
8081
8206
8040
8207
8071
8150
8165
8037
8277
7943
8363
7888
8388
7907
8331
7995
8226
8118
8098
8227
8007
8286
7982
8273
8021
8195
8108
8084
8204
8009
8258
7994
8237
8061
8152
8163
8027
8276
7925
8381
7876
8391
7895
8334
7980
8223
8097
8117
8185
8045
8231
8045
8198
8115
8107
8219
8004
8309
7942
8351
7945
8302
8018
8207
8134
8083
8252
7974
8340
7924
8350
7950
8288
8034
8178
8139
8079
8208
8033
8217
8064
8156
8151
8040
8260
7935
8359
7875
8393
7883
8349
7964
8233
8081
8112
8195
8020
8266
7993
8267
8030
8191
8121
8078
8220
8008
8290
7986
8257
8034
8182
8144
8062
8269
7952
8372
7886
8398
7900
8340
7974
8240
8089
8130
8185
8054
8224
8053
8189
8107
8097
8212
7997
8306
7912
8355
7910
8307
7970
8221
8101
8105
8225
7992
8309
7940
8337
7960
8277
8033
8176
8140
8069
8211
8020
8223
8047
8170
8146
8071
8258
7954
8356
7880
8400
7883
8363
7955
8266
8072
8151
8180
8045
8244
8008
8246
8042
8177
8131
8077
8232
7988
8292
7953
8271
8007
8201
8112
8081
8235
7966
8332
7891
8384
7902
8353
7969
8245
8072
8136
8168
8055
8211
8048
8191
8116
8109
8220
8000
8317
7918
8373
7900
8352
7956
8253
8073
8137
8199
8030
8287
7967
8323
7973
8267
8036
8167
8147
8072
8237
8023
8238
8037
8188
8127
8084
8231
7959
8344
7882
8396
7867
8380
7932
8274
8049
8169
8161
8065
8228
8020
8240
8049
8172
8144
8069
8240
7989
8321
7956
8310
7983
8232
8096
8123
8220
7991
8319
7918
8381
7913
8350
7972
8254
8068
8141
8170
8070
8230
8052
8195
8110
8112
8202
7997
8311
7914
8381
7885
8368
7929
8277
8033
8157
8154
8037
8259
7971
8287
7980
8258
8051
8175
8160
8066
8243
8008
8266
8023
8210
8106
8116
8220
7981
8329
7904
8403
7880
8391
7929
8305
8029
8187
8148
8091
8215
8033
8228
8055
8165
8145
8066
8244
7976
8318
7926
8325
7958
8257
8052
8145
8177
8023
8287
7934
8351
7915
8336
7970
8251
8066
8152
8172
8067
8235
8042
8205
8104
8127
8199
8009
8304
7917
8383
7876
8382
7916
8306
8019
8198
8141
8084
8242
7997
8290
7999
8248
8052
8158
8160
8058
8253
7996
8269
7999
8227
8073
8130
8191
7999
8294
7902
8381
7873
8373
7910
8304
8011
8191
8124
8085
8202
8037
8229
8065
8164
8154
8069
8248
7967
8335
7921
8364
7951
8298
8048
8193
8164
8073
8278
7964
8344
7935
8322
7974
8236
8059
8144
8168
8049
8229
8029
8208
8082
8134
8177
8020
8293
7920
8375
7867
8395
7899
8329
7985
8214
8106
8104
8220
8023
8262
8012
8242
8066
8141
8164
8050
8263
7977
8302
7988
8262
8052
8163
8164
8044
8290
7931
8376
7892
8385
7916
8321
8003
8203
8123
8113
8198
8053
8226
8068
8163
8137
8052
8237
7957
8333
7897
8355
7903
8300
7987
8204
8120
8085
8238
7981
8306
7950
8313
7988
8242
8071
8142
8175
8055
8247
8027
8225
8068
8161
8177
8045
8285
7926
8379
7875
8404
7901
8359
7978
8242
8101
8122
8194
8035
8242
8022
8221
8074
8151
8168
8037
8273
7960
8311
7957
8274
8027
8185
8140
8063
8267
7949
8357
7904
8369
7914
8318
8008
8210
8115
8125
8203
8061
8234
8069
8177
8149
8073
8248
7964
8343
7887
8363
7891
8332
7980
8233
8098
8124
8229
8024
8304
7979
8311
8002
8229
8074
8121
8172
8036
8246
8006
8239
8037
8171
8146
8055
8265
7942
8368
7879
8399
7883
8360
7957
8251
8076
8138
8180
8048
8238
8036
8222
8083
8143
8181
8034
8287
7960
8335
7945
8310
7997
8218
8120
8107
8247
7985
8334
7920
8372
7930
8318
8007
8213
8112
8110
8192
8040
8219
8050
8174
8123
8078
8232
7961
8341
7890
8379
7880
8357
7943
8262
8064
8146
8190
8032
8259
7977
8285
8010
8225
8087
8118
8187
8035
8272
8001
8262
8028
8203
8133
8097
8246
7968
8357
7892
8403
7889
8369
7946
8267
8068
8164
8169
8068
8219
8034
8203
8079
8121
8166
8020
8273
7942
8337
7917
8326
7962
8246
8073
8125
8194
8000
8299
7943
8344
7938
8313
8006
8220
8105
8109
8195
8046
8227
8042
8191
8119
8102
8230
7985
8343
7906
8400
7879
8379
7932
8285
8039
8170
8165
8067
8241
8004
8274
8021
8214
8087
8109
8191
8017
8271
7970
8270
7991
8217
8096
8120
8213
7981
8322
7901
8383
7886
8369
7934
8274
8042
8166
8149
8074
8210
8046
8211
8088
8154
8182
8039
8298
7949
8357
7916
8363
7944
8282
8053
8172
8178
8049
8282
7965
8330
7953
8304
8012
8214
8101
8104
8197
8036
8234
8025
8203
8096
8112
8204
7991
8316
7901
8389
7869
8384
7912
8306
8009
8199
8130
8087
8221
8021
8260
8036
8207
8099
8113
8202
8022
8289
7967
8317
7987
8262
8071
8154
8193
8026
8302
7927
8377
7904
8367
7940
8284
8033
8181
8139
8079
8199
8035
8202
8073
8140
8165
8026
8275
7935
8362
7899
8377
7924
8318
8028
8196
8134
8076
8246
7980
8313
7969
8295
8024
8208
8108
8108
8208
8029
8261
8016
8226
8080
8142
8193
8017
8308
7919
8388
7881
8397
7905
8330
7998
8216
8115
8112
8200
8029
8239
8036
8193
8093
8098
8201
8001
8293
7947
8326
7944
8276
8030
8170
8148
8054
8275
7950
8356
7908
8356
7941
8292
8032
8185
8138
8085
8208
8046
8218
8076
8162
8169
8047
8276
7955
8370
7889
8391
7905
8341
7993
8232
8130
8117
8233
8010
8283
7983
8279
8020
8199
8120
8096
8218
8014
8269
8003
8242
8058
8159
8159
8037
8280
7927
8375
7875
8393
7893
8340
7974
8234
8096
8130
8197
8053
8227
8040
8197
8106
8104
8217
8012
8315
7938
8353
7937
8305
8019
8213
8128
8095
8249
7972
8326
7929
8352
7945
8287
8033
8185
8140
8081
8206
8037
8218
8060
8164
8146
8060
8259
7944
8360
7885
8392
7883
8351
7955
8251
8085
8130
8191
8030
8262
8002
8266
8038
8189
8127
8089
8220
8015
8287
7981
8272
8034
8190
8146
8081
8263
7960
8369
7897
8398
7901
8352
7979
8249
8081
8137
8178
8055
8222
8053
8197
8102
8100
8202
7995
8311
7925
8350
7906
8323
7972
8239
8097
8120
8222
8000
8299
7954
8334
7957
8286
8034
8188
8145
8080
8221
8039
8238
8045
8180
8146
8092
8260
7964
8361
7893
8407
7883
8371
7946
8275
8062
8159
8174
8053
8242
8014
8250
8040
8181
8122
8075
8221
7988
8291
7959
8285
7993
8217
8111
8103
8234
7976
8330
7902
8379
7899
8348
7970
8252
8065
8153
8180
8066
8220
8055
8203
8106
8127
8222
8011
8324
7927
8373
7907
8362
7955
8275
8067
8150
8180
8032
8276
7968
8312
7967
8275
8047
8179
8144
8073
8216
8018
8241
8024
8196
8115
8102
8226
7973
8340
7893
8396
7878
8385
7929
8298
8045
8182
8157
8086
8232
8026
8253
8061
8197
8149
8091
8249
7985
8316
7950
8305
7967
8241
8075
8136
8208
8012
8312
7927
8372
7916
8349
7976
8253
8066
8148
8161
8063
8213
8041
8197
8086
8114
8197
8003
8318
7919
8374
7871
8372
7924
8292
8032
8175
8156
8067
8256
7995
8307
7990
8267
8056
8179
8154
8071
8241
8016
8265
8015
8227
8107
8139
8215
8013
8330
7911
8398
7884
8391
7921
8305
8019
8195
8136
8093
8214
8039
8229
8053
8176
8133
8065
8234
7977
8316
7925
8333
7944
8281
8047
8160
8165
8045
8281
7949
8349
7924
8343
7970
8263
8069
8160
8173
8072
8229
8034
8207
8083
8138
8198
8029
8297
7928
8381
7881
8388
7903
8317
7993
8206
8124
8096
8227
8008
8270
8001
8261
8058
8171
8154
8055
8242
7980
8280
7991
8240
8061
8159
8181
8034
8299
7931
8382
7886
8395
7923
8329
7997
8214
8121
8119
8210
8049
8231
8060
8178
8145
8076
8243
7973
8333
7927
8365
7939
8309
8019
8202
8148
8085
8254
7973
8334
7939
8323
7979
8252
8065
8155
8166
8066
8235
8029
8211
8065
8149
8176
8036
8282
7927
8376
7877
8399
7893
8351
7976
8237
8103
8121
8206
8032
8259
8015
8251
8065
8164
8169
8057
8268
7988
8304
7979
8281
8047
8190
8159
8066
8278
7954
8374
7901
8384
7916
8329
7995
8218
8103
8118
8188
8056
8234
8069
8185
8138
8077
8243
7972
8331
7895
8360
7898
8315
7968
8227
8100
8112
8219
8001
8294
7959
8305
7987
8245
8069
8146
8171
8054
8243
8026
8242
8053
8174
8162
8073
8275
7953
8389
7902
8418
7892
8368
7958
8257
8071
8141
8178
8049
8235
8019
8224
8068
8155
8167
8047
8265
7972
8321
7948
8293
8004
8214
8121
8094
8243
7977
8338
7913
8371
7921
8325
7989
8231
8107
8123
8186
8057
8220
8066
8196
8139
8101
8240
7991
8346
7910
8397
7894
8362
7957
8270
8071
8140
8197
8031
8268
7968
8290
7989
8236
8066
8129
8171
8048
8255
8002
8247
8024
8182
8131
8077
8248
7957
8353
7881
8398
7877
8371
7944
8269
8060
8165
8176
8066
8226
8038
8218
8074
8152
8176
8042
8277
7971
8349
7947
8338
7980
8242
8087
8127
8226
8014
8311
7928
8356
7927
8321
7995
8226
8090
8115
8186
8048
8218
8051
8187
8117
8099
8220
7980
8339
7909
8396
7882
8378
7936
8289
8046
8170
8167
8059
8255
7996
8293
8019
8234
8087
8133
8190
8047
8272
7998
8281
8018
8230
8108
8118
8229
7995
8344
7909
8394
7886
8379
7941
8291
8045
8173
8146
8073
8214
8047
8215
8071
8148
8167
8039
8268
7950
8341
7922
8353
7952
8268
8059
8159
8184
8040
8283
7949
8332
7935
8317
8002
8224
8097
8125
8197
8060
8249
8051
8216
8111
8130
8218
7998
8312
7903
8397
7876
8390
7918
8313
8029
8195
8144
8091
8229
8009
8266
8019
8211
8073
8115
8187
8022
8264
7964
8284
7986
8245
8078
8145
8201
8022
8314
7922
8381
7891
8370
7939
8291
8031
8197
8143
8084
8211
8050
8221
8083
8158
8175
8050
8284
7957
8362
7908
8374
7941
8305
8039
8194
8157
8066
8266
7975
8327
7956
8303
8001
8213
8087
8103
8186
8027
8231
8022
8218
8090
8132
8194
8010
8308
7916
8389
7876
8404
7908
8328
7993
8212
8119
8104
8220
8030
8264
8030
8218
8099
8121
8208
8029
8295
7966
8329
7972
8277
8056
8173
8170
8045
8282
7941
8367
7904
8375
7937
8302
8025
8189
8136
8087
8205
8039
8207
8066
8157
8167
8049
8270
7947
8354
7896
8382
7912
8322
7990
8213
8121
8088
8239
8004
8297
7974
8296
8021
8221
8116
8114
8212
8041
8267
8012
8246
8071
8160
8178
8040
8290
7932
8387
7880
8404
7902
8344
7978
8229
8107
8124
8189
8043
8232
8041
8205
8094
8105
8198
8006
8288
7942
8335
7939
8301
8025
8199
8139
8082
8261
7966
8355
7928
8362
7947
8309
8031
8197
8137
8096
8208
8051
8232
8074
8174
8166
8071
8268
7962
8376
7903
8401
7900
8359
7977
8250
8096
8119
8204
8019
8274
7989
8280
8019
8203
8110
8095
8206
8017
8277
7997
8260
8059
8178
8151
8064
8270
7941
8370
7889
8397
7898
8352
7962
8239
8088
8142
8187
8062
8232
8050
8204
8108
8128
8211
8016
8315
7946
8361
7933
8330
8000
8234
8113
8109
8230
7986
8324
7938
8343
7946
8295
8029
8194
8129
8087
8202
8034
8222
8048
8170
8144
8075
8254
7956
8351
7889
8406
7883
8367
7949
8267
8076
8148
8189
8049
8253
8011
8277
8044
8211
8125
8092
8222
8013
8295
7988
8277
8023
8217
8128
8090
8246
7972
8355
7895
8391
7899
8356
7967
8256
8078
8152
8172
8064
8216
8053
8198
8095
8116
8204
8011
8312
7929
8367
7914
8352
7960
8260
8080
8140
8202
8009
8289
7954
8330
7966
8292
8036
8198
8145
8091
8224
8043
8250
8050
8205
8133
8099
8246
7978
8355
7895
8405
7883
8390
7940
8283
8038
8164
8154
8065
8229
8013
8247
8042
8190
8122
8088
8230
7995
8293
7949
8288
7983
8227
8092
8120
8219
7993
8327
7915
8382
7905
8358
7962
8259
8065
8159
8172
8075
8224
8051
8214
8099
8131
8219
8030
8327
7936
8383
7904
8376
7942
8290
8047
8171
8169
8062
8271
7976
8314
7971
8282
8035
8179
8127
8075
8219
8020
8249
8021
8218
8108
8112
8216
7997
8331
7901
8398
7875
8399
7930
8306
8024
8196
8153
8096
8224
8038
8254
8059
8185
8143
8089
8236
7996
8327
7957
8333
7970
8270
8076
8162
8190
8036
8292
7935
8367
7912
8346
7958
8266
8052
8156
8158
8061
8209
8033
8202
8080
8129
8194
8019
8302
7928
8383
7886
8384
7920
8310
8024
8202
8142
8083
8247
7998
8296
7992
8276
8060
8187
8158
8077
8253
8014
8282
8013
8241
8096
8150
8202
8026
8321
7927
8392
7873
8386
7913
8311
8006
8203
8125
8104
8200
8033
8230
8051
8180
8134
8079
8242
7986
8326
7928
8347
7942
8291
8037
8183
8158
8067
8275
7964
8351
7928
8343
7969
8263
8053
8162
8156
8065
8231
8040
8223
8084
8148
8189
8039
8302
7935
8392
7880
8401
7908
8336
7996
8226
8117
8105
8220
8018
8272
8001
8257
8049
8173
8153
8063
8253
7994
8283
7986
8252
8066
8170
8176
8052
8299
7932
8382
7893
8395
7913
8320
7995
8216
8114
8117
8199
8050
8231
8063
8184
8145
8086
8244
7990
8345
7926
8363
7929
8321
8014
8219
8138
8095
8252
7984
8320
7942
8323
7975
8253
8059
8154
8165
8059
8231
8029
8223
8071
8163
8168
8047
8287
7948
8378
7883
8405
7900
8353
7976
8246
8099
8128
8195
8039
8254
8021
8260
8071
8178
8171
8062
8263
7993
8317
7983
8290
8041
8201
8156
8084
8276
7960
8370
7904
8380
7903
8317
7975
8210
8099
8111
8183
8048
8224
8056
8175
8129
8080
8237
7978
8343
7908
8375
7913
8338
7981
8246
8102
8121
8221
8015
8299
7969
8320
7992
8257
8076
8156
8172
8062
8257
8036
8253
8058
8192
8162
8089
8275
7965
8374
7885
8407
7886
8364
7956
8259
8075
8144
8173
8045
8230
8022
8226
8060
8156
8161
8046
8260
7968
8319
7948
8297
8003
8226
8119
8103
8240
7980
8338
7924
8377
7929
8335
7995
8235
8109
8130
8187
8057
8237
8061
8196
8138
8107
8241
7996
8352
7913
8400
7902
8370
7956
8271
8073
8150
8198
8038
8269
7980
8294
7995
8237
8070
8144
8169
8040
8251
8007
8256
8033
8200
8136
8097
8252
7980
8361
7904
8415
7891
8383
7949
8287
8058
8172
8172
8079
8229
8038
8234
8080
8152
8168
8050
8280
7970
8346
7945
8346
7983
8257
8092
8140
8219
8019
8311
7937
8362
7931
8320
7981
8219
8082
8113
8178
8049
8216
8047
8200
8119
8112
8221
7990
8335
7911
8394
7887
8383
7932
8290
8045
8179
8166
8068
8253
7997
8276
8007
8245
8082
8145
8193
8051
8275
8001
8282
8016
8229
8110
8126
8220
7990
8334
7911
8401
7883
8379
7937
8286
8031
8175
8144
8078
8215
8040
8212
8074
8152
8171
8046
8269
7950
8346
7920
8344
7949
8275
8055
8165
8178
8047
8289
7961
8343
7949
8323
8004
8231
8099
8124
8200
8064
8252
8049
8219
8112
8128
8215
8006
8341
7913
8396
7880
8401
7923
8316
8024
8197
8138
8081
8224
8015
8254
8013
8219
8084
8123
8192
8034
8283
7983
8307
7995
8247
8082
8145
8199
8024
8310
7922
8379
7896
8374
7931
8287
8023
8185
8147
8093
8215
8052
8223
8088
8162
8182
8057
8281
7962
8362
7909
8378
7935
8303
8038
8192
8146
8064
8256
7981
8322
7957
8302
8000
8219
8092
8106
8196
8041
8255
8028
8222
8090
8141
8198
8017
8312
7919
8388
7871
8404
7909
8328
8002
8220
8130
8119
8220
8041
8249
8037
8225
8107
8129
8212
8036
8298
7975
8333
7983
8275
8057
8174
8167
8054
8292
7949
8371
7902
8365
7929
8300
8015
8188
8130
8082
8202
8044
8213
8072
8157
8162
8051
8267
7954
8359
7895
8383
7910
8333
7995
8218
8126
8100
8234
7996
8291
7980
8305
8022
8220
8111
8115
8213
8046
8274
8026
8258
8086
8166
8182
8059
8296
7936
8390
7877
8403
7899
8349
7980
8234
8100
8121
8194
8037
8235
8034
8204
8096
8109
8197
8018
8304
7948
8342
7948
8304
8028
8209
8142
8086
8258
7965
8352
7924
8365
7949
8306
8031
8203
8145
8099
8212
8049
8227
8074
8170
8165
8061
8275
7962
8368
7902
8402
7905
8357
7977
8248
8093
8120
8206
8027
8275
7990
8282
8019
8194
8104
8095
8204
8015
8272
7998
8261
8058
8183
8159
8072
8285
7955
8384
7891
8408
7901
8352
7978
8253
8097
8143
8193
8061
8237
8053
8211
8115
8118
8214
8020
8319
7944
8355
7936
8323
7996
8229
8111
8104
8237
7981
8320
7931
8340
7942
8292
8023
8185
8119
8088
8209
8037
8222
8059
8175
8150
8075
8266
7958
8369
7891
8407
7895
8369
7957
8265
8083
8147
8198
8044
8268
8006
8279
8040
8200
8125
8104
8232
8018
8299
7993
8278
8030
8204
8146
8084
8261
7962
8364
7894
8395
7899
8350
7969
8251
8092
8149
8189
8073
8244
8055
8195
8096
8096
8205
7997
8307
7925
8364
7913
8329
7972
8248
8093
8122
8221
8004
8301
7948
8340
7962
8286
8035
8184
8148
8089
8242
8049
8252
8073
8203
8156
8097
8267
7973
8367
7894
8417
7887
8375
7943
8274
8066
8155
8168
8049
8241
8010
8252
8040
8184
8129
8087
8234
8002
8298
7973
8297
8020
8228
8122
8108
8244
7980
8344
7909
8392
7910
8357
7981
8263
8089
8147
8180
8071
8241
8060
8202
8125
8127
8220
8016
8332
7934
8380
7906
8368
7956
8269
8074
8142
8196
8035
8280
7962
8317
7972
8271
8045
8173
8148
8073
8231
8019
8243
8038
8191
8128
8102
8247
7981
8359
7898
8405
7885
8385
7942
8282
8051
8169
8161
8064
8238
8031
8258
8063
8191
8167
8088
8250
7990
8322
7958
8318
8001
8254
8105
8135
8230
8000
8321
7918
8375
7904
8340
7968
8241
8063
8137
8161
8056
8224
8046
8198
8111
8118
8213
8004
8324
7915
8384
7891
8375
7946
8287
8049
8168
8174
8058
8272
7986
8309
7997
8273
8060
8179
8165
8074
8254
8019
8259
8029
8224
8124
8121
8238
8001
8339
7911
8409
7879
8382
7921
8285
8020
8172
8143
8072
8215
8033
8234
8061
8167
8149
8067
8244
7978
8327
7937
8340
7977
8268
8075
8153
8197
8041
8313
7948
8369
7926
8348
7984
8251
8075
8155
8179
8075
8247
8061
8224
8127
8139
8215
8021
8325
7921
8397
7891
8391
7921
8306
8031
8189
8150
8076
8243
7990
8286
7999
8256
8068
8163
8167
8065
8260
8006
8289
8016
8245
8101
8143
8215
8027
8319
7914
8384
7873
8380
7920
8293
8023
8202
8138
8100
8211
8050
8239
8072
8174
8161
8072
8258
7980
8343
7929
8359
7951
8297
8047
8185
8171
8054
8278
7953
8347
7932
8322
7983
8245
8075
8148
8179
8060
8239
8038
8216
8098
8144
8202
8026
8309
7926
8398
7884
8401
7905
8327
8002
8218
8127
8098
8222
8014
8269
8020
8254
8084
8165
8188
8068
8275
7991
8312
8003
8265
8074
8163
8185
8040
8302
7926
8381
7889
8372
7914
8317
8007
8201
8119
8094
8202
8050
8230
8069
8175
8147
8065
8262
7976
8353
7924
8379
7939
8322
8019
8207
8140
8088
8251
7984
8326
7947
8321
7989
8241
8085
8152
8190
8069
8260
8046
8248
8093
8167
8187
8048
8296
7931
8386
7881
8404
7893
8341
7967
8228
8094
8109
8195
8030
8245
8019
8223
8076
8149
8183
8048
8281
7970
8317
7972
8282
8046
8194
8167
8077
8284
7957
8372
7907
8389
7931
8323
8012
8215
8132
8106
8209
8063
8222
8069
8180
8154
8089
8265
7977
8358
7909
8380
7914
8338
7983
8239
8111
8110
8224
8001
8299
7966
8306
7997
8225
8084
8121
8182
8052
8259
8009
8241
8054
8174
8165
8066
8283
7944
8381
7885
8412
7900
8369
7974
8253
8089
8142
8197
8059
8244
8042
8240
8100
8152
8201
8048
8297
7964
8335
7949
8304
8016
8221
8130
8089
8247
7973
8338
7917
8369
7929
8312
8009
8210
8117
8106
8198
8054
8225
8060
8183
8148
8086
8258
7974
8350
7900
8401
7899
8360
7970
8263
8095
8145
8208
8028
8286
7995
8295
8015
8228
8104
8130
8204
8050
8278
8008
8260
8046
8200
8150
8084
8267
7968
8370
7888
8396
7888
8364
7961
8262
8069
8149
8173
8060
8232
8041
8210
8091
8137
8189
8030
8293
7956
8348
7935
8324
7983
8243
8103
8125
8231
8005
8319
7937
8354
7947
8311
8013
8226
8143
8125
8216
8062
8254
8066
8198
8135
8095
8252
7975
8353
7901
8400
7890
8378
7941
8273
8050
8153
8171
8052
8248
7987
8272
8019
8214
8103
8111
8203
8031
8284
7988
8282
8022
8219
8125
8108
8238
7984
8349
7908
8407
7903
8373
7964
8285
8073
8167
8166
8068
8221
8048
8211
8094
8143
8198
8039
8299
7939
8352
7917
8352
7970
8273
8075
8149
8196
8030
8287
7954
8341
7954
8302
8014
8213
8111
8105
8207
8038
8245
8044
8203
8126
8115
8237
7994
8348
7907
8406
7881
8390
7931
8302
8041
8195
8163
8086
8241
8026
8270
8045
8222
8116
8120
8222
8035
8307
7979
8297
8000
8240
8092
8126
8211
8016
8320
7912
8377
7893
8360
7943
8273
8047
8164
8151
8076
8216
8052
8214
8094
8146
8196
8034
8307
7944
8373
7905
8379
7940
8297
8052
8181
8168
8062
8277
7984
8336
7980
8301
8032
8213
8132
8112
8228
8040
8274
8037
8213
8108
8130
8217
8008
8333
7911
8401
7884
8398
7920
8311
8014
8199
8131
8091
8219
8026
8254
8044
8205
8116
8097
8225
8012
8316
7956
8322
7969
8261
8060
8150
8189
8039
8300
7936
8370
7919
8368
7960
8281
8053
8184
8167
8087
8226
8058
8223
8096
8154
8199
8037
8296
7941
8376
7897
8389
7917
8316
8026
8208
8146
8081
8244
7986
8296
7976
8280
8034
8194
8124
8093
8225
8023
8272
8020
8231
8089
8150
8199
8028
8306
7921
8396
7888
8406
7913
8326
8006
8222
8127
8117
8217
8047
8259
8064
8201
8125
8100
8234
8003
8321
7949
8348
7959
8292
8045
8179
8165
8058
8275
7959
8355
7916
8350
7952
8272
8044
8174
8150
8083
8221
8054
8227
8083
8157
8185
8044
8288
7939
8383
7886
8398
7910
8344
7996
8233
8118
8114
8228
8015
8285
7997
8275
8042
8192
8134
8087
8249
8025
8303
8011
8260
8070
8166
8174
8047
8284
7932
8385
7883
8403
7912
8341
7986
8218
8104
8110
8193
8047
8234
8055
8192
8131
8092
8230
7995
8326
7932
8359
7940
8321
8022
8217
8140
8095
8256
7989
8342
7947
8342
7970
8282
8056
8186
8172
8088
8239
8050
8243
8077
8169
8174
8067
8278
7942
8372
7882
8401
7894
8354
7968
8246
8093
8124
8198
8029
8262
8006
8260
8054
8188
8149
8078
8253
8004
8309
7991
8284
8057
8206
8160
8084
8276
7955
8364
7889
8386
7899
8335
7989
8242
8104
8143
8197
8063
8244
8065
8197
8142
8110
8232
8000
8340
7927
8377
7918
8331
7983
8245
8107
8115
8223
8003
8300
7946
8321
7980
8275
8052
8173
8168
8078
8242
8040
8241
8057
8178
8155
8071
8265
7959
8373
7890
8411
7892
8373
7960
8275
8081
8158
8185
8062
8252
8027
8259
8071
8185
8157
8073
8266
7991
8324
7964
8296
8010
8214
8117
8102
8247
7975
8341
7911
8380
7914
8336
7982
8241
8082
8137
8183
8064
8230
8061
8197
8131
8112
8236
7996
8335
7915
8388
7903
8370
7961
8275
8084
8154
8203
8046
8285
7989
8317
7995
8274
8071
8178
8179
8076
8257
8026
8263
8050
8212
8137
8096
8247
7973
8364
7898
8404
7883
8382
7937
8283
8046
8166
8156
8063
8230
8034
8240
8070
8168
8158
8068
8253
7975
8325
7952
8331
7987
8249
8093
8141
8221
8013
8321
7929
8374
7932
8343
7990
8244
8082
8149
8194
8064
8245
8064
8214
8127
8124
8223
8008
8343
7919
8394
7891
8383
7935
8293
8047
8163
8166
8060
8260
7992
8294
8004
8258
8074
8165
8176
8066
8264
8009
8265
8021
8227
8117
8126
8230
7993
8340
7906
8401
7884
8385
7937
8296
8035
8193
8158
8087
8229
8049
8238
8076
8170
8169
8069
8288
7976
8350
7935
8350
7966
8278
8070
8157
8176
8030
8285
7945
8348
7933
8329
7987
8237
8084
8144
8191
8063
8235
8055
8213
8110
8129
8207
8010
8333
7924
8402
7894
8401
7925
8319
8031
8204
8156
8095
8248
8023
8290
8025
8256
8087
8159
8194
8061
8279
7997
8305
8011
8254
8094
8144
8212
8022
8310
7908
8380
7884
8374
7928
8301
8023
8202
8148
8097
8216
8050
8214
8067
8159
8164
8056
8269
7959
8348
7918
8367
7948
8302
8048
8195
8169
8069
8271
7975
8341
7951
8321
8003
8244
8092
8143
8197
8062
8256
8050
8234
8106
8146
8205
8020
8319
7928
8395
7875
8392
7904
8321
7994
8215
8122
8105
8219
8034
8258
8017
8221
8077
8135
8190
8038
8281
7983
8318
7988
8267
8068
8165
8182
8047
8296
7940
8384
7904
8384
7940
8325
8034
8210
8136
8099
8217
8064
8227
8076
8174
8179
8070
8274
7969
8354
7907
8378
7918
8313
7994
8207
8121
8078
8232
7986
8297
7960
8304
8006
8238
8101
8127
8203
8052
8255
8024
8232
8081
8155
8187
8050
8304
7939
8398
7891
8409
7907
8366
7991
8243
8110
8122
8212
8047
8255
8049
8228
8104
8143
8197
8039
8293
7976
8331
7968
8294
8042
8194
8151
8064
8268
7950
8352
7902
8369
7933
8313
8019
8199
8130
8100
8203
8057
8223
8075
8172
8161
8066
8272
7967
8372
7906
8398
7915
8350
7991
8249
8116
8119
8224
8016
8292
7983
8303
8026
8230
8107
8132
8224
8052
8278
8019
8257
8070
8178
8179
8071
8282
7944
8384
7884
8397
7891
8358
7972
8243
8091
8140
8195
8057
8242
8050
8216
8096
8134
8212
8032
8303
7956
8352
7949
8309
8014
8230
8141
8107
8258
7979
8331
7926
8366
7951
8317
8027
8211
8143
8110
8220
8058
8233
8063
8182
8157
8081
8264
7965
8362
7895
8396
7888
8359
7964
8259
8086
8132
8195
8028
8269
7995
8288
8032
8218
8120
8117
8220
8025
8285
7998
8270
8042
8203
8150
8081
8271
7966
8376
7903
8406
7894
8357
7969
8263
8088
8151
8185
8068
8236
8066
8215
8114
8143
8216
8026
8314
7941
8355
7924
8323
7981
8233
8100
8116
8216
7997
8309
7937
8350
7956
8301
8032
8202
8135
8097
8211
8038
8238
8062
8194
8150
8100
8263
7975
8364
7903
8412
7889
8374
7947
8274
8067
8161
8192
8066
8263
8017
8279
8040
8209
8128
8103
8226
8022
8295
7989
8290
8022
8227
8131
8110
8245
7976
8337
7894
8386
7897
8357
7959
8260
8070
8161
8173
8075
8228
8054
8212
8110
8129
8209
8022
8322
7938
8376
7918
8361
7963
8270
8087
8160
8210
8044
8301
7963
8340
7976
8300
8044
8200
8151
8101
8221
8045
8249
8047
8204
8125
8100
8239
7979
8347
7894
8402
7881
8380
7937
8295
8047
8176
8156
8079
8240
8025
8257
8048
8197
8131
8101
8237
8015
8323
7972
8305
7993
8242
8100
8136
8227
8005
8326
7926
8387
7914
8364
7972
8277
8068
8170
8172
8085
8228
8059
8210
8104
8135
8199
8019
8316
7929
8374
7896
8366
7939
8287
8044
8174
8169
8058
8275
7984
8313
7980
8282
8040
8186
8137
8094
8244
8034
8261
8037
8226
8118
8124
8224
7999
8332
7914
8411
7881
8397
7928
8316
8034
8209
8154
8108
8238
8045
8264
8064
8205
8149
8104
8249
8004
8317
7948
8338
7973
8262
8068
8149
8186
8023
8292
7934
8363
7909
8353
7968
8267
8060
8164
8163
8079
8234
8050
8215
8112
8141
8202
8031
8309
7934
8393
7898
8393
7928
8316
8028
8202
8145
8086
8249
8004
8307
8005
8280
8050
8182
8156
8082
8249
8014
8284
8022
8243
8090
8148
8205
8026
8321
7925
8388
7880
8393
7914
8314
8019
8218
8131
8119
8218
8053
8251
8061
8186
8148
8094
8246
7998
8338
7944
8360
7960
8299
8046
8188
8168
8071
8277
7969
8358
7940
8348
7982
8285
8072
8171
8167
8076
8245
8058
8237
8105
8155
8192
8033
8302
7934
8377
7882
8395
7902
8326
7988
8219
8120
8109
8220
8023
8275
8008
8261
8068
8183
8165
8070
8261
8009
8294
7999
8260
8073
8167
8184
8051
8295
7939
8394
7900
8406
7927
8342
8013
8235
8128
8133
8214
8060
8245
8071
8187
8152
8096
8256
7980
8337
7917
8355
7924
8306
7997
8205
8122
8082
8242
7986
8331
7944
8332
7984
8257
8064
8157
8176
8076
8248
8041
8235
8075
8167
8176
8061
8288
7952
8388
7885
8414
7904
8369
7983
8258
8110
8148
8212
8049
8266
8029
8260
8075
8176
8172
8071
8271
7999
8322
7981
8282
8040
8193
8148
8076
8269
7956
8362
7890
8374
7915
8328
7997
8234
8115
8131
8202
8065
8233
8065
8192
8146
8110
8246
7989
8351
7917
8382
7919
8344
7984
8246
8109
8126
8226
8016
8304
7964
8319
7999
8264
8075
8167
8174
8063
8252
8024
8246
8058
8182
8154
8069
8271
7955
8373
7882
8402
7881
8366
7952
8268
8082
8152
8186
8056
8238
8035
8245
8080
8165
8181
8063
8276
7974
8329
7957
8315
8013
8230
8123
8106
8247
7982
8338
7923
8381
7930
8343
8000
8237
8115
8141
8193
8062
8237
8062
8188
8139
8104
8239
7986
8340
7907
8392
7897
8365
7954
8266
8075
8149
8197
8042
8279
7985
8308
8010
8258
8082
8160
8186
8060
8266
8019
8272
8044
8211
8139
8097
8254
7976
8363
7900
8411
7895
8389
7961
8290
8064
8182
8175
8080
8239
8048
8235
8088
8163
8179
8061
8281
7972
8346
7939
8343
7980
8251
8097
8129
8216
8017
8320
7937
8358
7929
8323
7990
8232
8092
8132
8191
8053
8245
8062
8202
8131
8117
8241
8003
8346
7913
8407
7902
8393
7941
8301
8060
8186
8179
8073
8259
8009
8294
8019
8250
8083
8135
8192
8053
8277
8003
8288
8021
8232
8108
8120
8230
7990
8329
7907
8392
7883
8373
7939
8290
8037
8183
8158
8086
8217
8051
8223
8084
8158
8183
8063
8296
7978
8363
7934
8363
7965
8291
8062
8159
8177
8044
8287
7966
8349
7948
8323
8007
8237
8108
8131
8201
8062
8248
8047
8218
8111
8135
8216
8004
8323
7911
8396
7880
8394
7924
8317
8013
8198
8139
8094
8229
8019
8269
8028
8224
8096
8134
8196
8045
8292
7987
8313
7998
8252
8087
8149
8200
8026
8317
7931
8391
7903
8387
7947
8319
8040
8200
8155
8104
8229
8067
8228
8086
8163
8178
8052
8276
7953
8363
7911
8382
7933
8302
8027
8189
8152
8074
8264
7978
8326
7960
8309
8008
8226
8100
8125
8205
8049
8260
8034
8232
8101
8146
8202
8021
8310
7920
8391
7884
8409
7921
8334
8000
8228
8133
8127
8227
8044
8266
8034
8217
8093
8141
8210
8035
8304
7982
8332
7973
8279
8062
8174
8172
8047
8280
7944
8364
7905
8372
7945
8306
8030
8197
8147
8097
8218
8057
8230
8089
8176
8182
8065
8279
7960
8372
7907
8388
7907
8327
7999
8224
8129
8102
8235
8002
8314
7983
8306
8030
8226
8111
8123
8215
8048
8279
8026
8255
8083
8164
8181
8048
8294
7936
8385
7882
8400
7896
8349
7972
8227
8096
8127
8193
8061
8251
8054
8218
8110
8123
8210
8031
8315
7964
8348
7958
8314
8035
8214
8146
8087
8266
7981
8352
7935
8373
7956
8321
8041
8207
8139
8109
8214
8052
8228
8072
8178
8162
8080
8269
7967
8371
7893
8400
7891
8351
7965
8239
8083
8125
8209
8029
8273
7994
8283
8032
8205
8108
8106
8215
8031
8288
8012
8271
8061
8200
8163
8081
8279
7962
8378
7898
8408
7911
8364
7984
8263
8095
8159
8185
8073
8239
8059
8211
8106
8132
8207
8019
8312
7944
8356
7934
8325
7982
8240
8106
8127
8237
8004
8319
7948
8347
7952
8296
8028
8204
8137
8096
8212
8048
8241
8065
8195
8144
8090
8256
7974
8364
7898
8413
7890
8379
7958
8281
8076
8175
8194
8075
8266
8019
8281
8046
8208
8124
8104
8224
8013
8295
7981
8288
8012
8209
8120
8101
8249
7981
8342
7903
8387
7900
8361
7972
8273
8086
8164
8176
8076
8234
8058
8213
8106
8132
8208
8022
8306
7928
8369
7917
8367
7968
8272
8080
8157
8207
8051
8301
7967
8341
7967
8303
8037
8200
8141
8094
8217
8037
8242
8043
8197
8111
8094
8219
7977
8345
7894
8406
7885
8389
7935
8300
8048
8183
8155
8077
8234
8021
8261
8045
8205
8146
8099
8239
8016
8319
7976
8327
8007
8248
8102
8139
8219
8019
8330
7927
8391
7928
8378
7980
8286
8076
8169
8163
8075
8222
8055
8208
8104
8146
8211
8027
8319
7937
8376
7897
8374
7941
8301
8044
8180
8169
8063
8263
7981
8320
7982
8286
8039
8194
8145
8092
8244
8032
8272
8036
8226
8120
8137
8227
8012
8327
7917
8407
7887
8397
7926
8322
8027
8208
8152
8105
8225
8040
8249
8062
8194
8143
8093
8233
8002
8311
7943
8335
7964
8271
8060
8167
8184
8047
8298
7953
8373
7916
8350
7958
8267
8062
8177
8171
8086
8240
8065
8230
8125
8164
8208
8037
8302
7932
8377
7890
8395
7924
8329
8029
8221
8147
8104
8250
8015
8305
8003
8281
8058
8194
8156
8091
8245
8017
8284
8007
8240
8078
8150
8193
8030
8302
7921
8387
7887
8397
7916
8332
8007
8224
8123
8117
8212
8055
8243
8059
8193
8141
8095
8244
7999
8338
7938
8356
7948
8308
8038
8208
8164
8085
8278
7984
8357
7936
8344
7976
8285
8064
8180
8165
8083
8241
8049
8233
8082
8154
8177
8036
8284
7936
8379
7882
8400
7901
8343
7982
8236
8110
8119
8215
8022
8262
8003
8262
8060
8181
8161
8079
8257
8010
8315
7996
8279
8059
8189
8174
8067
8298
7955
8390
7904
8404
7922
8348
8006
8239
8122
8130
8200
8065
8240
8063
8187
8143
8090
8237
7987
8334
7920
8367
7921
8320
7995
8234
8121
8106
8235
7995
8321
7949
8333
7982
8273
8064
8169
8168
8083
8247
8036
8241
8070
8171
8172
8075
8287
7959
8385
7905
8416
7897
8370
7974
8266
8096
8153
8198
8050
8260
8029
8258
8071
8175
8161
8065
8264
7990
8310
7966
8286
8018
8205
8138
8089
8256
7965
8360
7911
8386
7917
8339
7993
8246
8120
8145
8200
8070
8240
8065
8195
8136
8104
8242
8001
8350
7918
8387
7909
8357
7973
8260
8098
8142
8216
8029
8306
7985
8327
8000
8275
8073
8168
8176
8068
8249
8020
8246
8050
8192
8135
8079
8254
7966
8363
7895
8410
7890
8376
7951
8278
8066
8165
8176
8066
8238
8037
8249
8079
8169
8173
8064
8273
7985
8339
7962
8325
8001
8247
8112
8126
8234
8000
8327
7928
8371
7923
8344
7996
8245
8090
8146
8188
8070
8248
8060
8203
8123
8113
8226
7992
8337
7903
8387
7889
8378
7944
8295
8065
8181
8183
8068
8278
8002
8306
8008
8265
8080
8167
8187
8068
8272
8020
8281
8039
8230
8122
8114
8232
7988
8339
7904
8402
7888
8396
7949
8304
8040
8188
8159
8087
8227
8053
8233
8074
8166
8171
8060
8260
7973
8346
7931
8339
7962
8270
8073
8160
8193
8039
8302
7950
8348
7929
8328
7998
8250
8099
8154
8192
8072
8245
8053
8216
8122
8142
8224
8021
8341
7934
8410
7893
8403
7930
8323
8040
8211
8158
8096
8250
8024
8293
8022
8247
8082
8154
8184
8051
8278
7994
8295
7997
8236
8078
8141
8211
8028
8315
7921
8389
7894
8393
7936
8310
8031
8203
8147
8111
8217
8056
8238
8080
8171
8170
8070
8279
7978
8360
7927
8374
7947
8303
8046
8204
8172
8086
8281
7973
8333
7953
8324
8000
8236
8081
8126
8188
8057
8254
8044
8225
8098
8143
8192
8022
8306
7921
8388
7877
8398
7903
8331
7999
8223
8128
8117
8217
8035
8256
8026
8223
8090
8154
8198
8055
8285
7987
8319
7984
8281
8065
8185
8180
8061
8302
7953
8388
7915
8389
7951
8332
8031
8212
8134
8099
8207
8053
8216
8063
8161
8149
8055
8260
7960
8360
7913
8379
7915
8324
7998
8229
8126
8107
8242
8003
8304
7970
8315
8008
8233
8093
8144
8201
8051
8268
8028
8247
8079
8171
8181
8058
8293
7948
8388
7888
8417
7911
8364
7985
8258
8103
8137
8197
8050
8246
8042
8228
8097
8144
8193
8040
8294
7966
8328
7952
8296
8013
8201
8132
8085
8264
7970
8355
7920
8369
7940
8323
8012
8219
8129
8112
8214
8063
8227
8073
8190
8161
8088
8259
7978
8365
7914
8406
7911
8364
7974
8260
8099
8150
8218
8047
8285
7991
8301
8020
8224
8101
8126
8204
8044
8270
8006
8267
8063
8188
8150
8077
8269
7967
8378
7897
8411
7896
8374
7964
8263
8076
8153
8191
8071
8240
8052
8222
8093
8143
8202
8038
8306
7964
8360
7942
8333
7995
8246
8117
8132
8237
8008
8326
7944
8366
7956
8317
8021
8218
8129
8118
8210
8051
8230
8057
8190
8132
8092
8240
7968
8343
7898
8403
7892
8379
7954
8283
8065
8166
8184
8064
8268
8010
8286
8036
8226
8114
8121
8212
8034
8295
8000
8279
8025
8227
8125
8116
8251
7996
8373
7927
8416
7911
8381
7964
8272
8063
8169
8167
8074
8226
8054
8216
8089
8143
8189
8031
8301
7950
8361
7918
8355
7958
8270
8078
8155
8187
8036
8293
7963
8341
7954
8306
8013
8215
8118
8119
8218
8060
8266
8061
8222
8135
8117
8240
8001
8353
7914
8413
7884
8395
7931
8304
8039
8191
8155
8086
8235
8019
8263
8037
8214
8108
8116
8215
8022
8293
7969
8311
7993
8252
8091
8138
8210
8018
8325
7923
8385
7907
8371
7952
8293
8055
8186
8168
8093
8233
8064
8221
8092
8153
8201
8043
8308
7949
8377
7917
8393
7948
8311
8055
8198
8176
8080
8283
7990
8324
7973
8301
8035
8217
8125
8114
8219
8031
8248
8026
8221
8099
8131
8205
8007
8319
7916
8400
7881
8400
7914
8324
8016
8217
8133
8110
8226
8043
8262
8054
8198
8114
8111
8225
8019
8314
7967
8336
7976
8279
8064
8176
8188
8060
8307
7954
8381
7927
8375
7963
8300
8050
8185
8154
8083
8215
8046
8218
8084
8155
8177
8042
8293
7948
8380
7892
8389
7919
8326
8018
8215
8136
8097
8242
8004
8309
7992
8289
8040
8215
8136
8109
8232
8034
8283
8014
8245
8085
8157
8196
8048
8314
7940
8404
7893
8412
7919
8352
8001
8230
8120
8120
8198
8047
8230
8055
8197
8113
8102
8232
8012
8324
7944
8341
7944
8296
8031
8202
8152
8077
8269
7974
8350
7932
8362
7963
8291
8045
8191
8153
8095
8241
8059
8238
8084
8174
8182
8054
8287
7958
8392
7899
8413
7909
8364
7989
8259
8123
8129
8229
8036
8286
8013
8283
8052
8201
8134
8092
8224
7999
8275
7990
8258
8049
8179
8158
8057
8275
7947
8374
7894
8400
7909
8351
7986
8247
8108
8148
8201
8066
8242
8066
8203
8131
8121
8237
8011
8330
7938
8375
7944
8337
8001
8240
8129
8127
8250
8008
8325
7948
8341
7968
8286
8051
8195
8157
8081
8219
8037
8233
8053
8172
8149
8072
8263
7959
8371
7891
8415
7896
8375
7967
8274
8078
8155
8199
8053
8259
8018
8271
8061
8191
8154
8092
8258
8011
8312
7988
8295
8025
8218
8146
8106
8267
7981
8377
7923
8400
7928
8361
7988
8247
8086
8140
8185
8062
8233
8056
8195
8127
8107
8225
7997
8325
7918
8381
7914
8354
7972
8259
8098
8138
8211
8020
8298
7961
8325
7984
8283
8059
8182
8166
8086
8257
8046
8261
8069
8206
8150
8100
8261
7974
8364
7895
8416
7889
8385
7955
8286
8071
8183
8180
8084
8246
8035
8254
8057
8182
8147
8068
8247
7980
8312
7960
8304
7997
8235
8107
8111
8234
7993
8333
7923
8384
7921
8350
7983
8260
8088
8158
8186
8070
8241
8065
8217
8130
8132
8229
8014
8338
7930
8394
7909
8384
7952
8290
8064
8171
8184
8068
8279
7996
8310
7995
8274
8059
8173
8162
8071
8247
8017
8261
8027
8223
8121
8116
8238
7993
8354
7903
8408
7891
8394
7941
8305
8056
8196
8167
8097
8235
8047
8247
8074
8193
8170
8084
8280
7994
8338
7950
8339
7980
8268
8078
8157
8207
8037
8315
7947
8368
7932
8349
7989
8259
8079
8154
8181
8070
8242
8049
8203
8107
8132
8210
8006
8327
7924
8390
7884
8397
7931
8310
8030
8200
8160
8085
8257
8008
8304
8010
8264
8071
8169
8175
8063
8262
8010
8276
8021
8246
8117
8155
8224
8038
8344
7926
8404
7892
8395
7935
8315
8024
8204
8141
8106
8220
8059
8247
8073
8174
8166
8069
8258
7976
8335
7924
8356
7954
8291
8048
8184
8173
8068
8282
7970
8350
7942
8344
7992
8256
8081
8154
8187
8071
8246
8049
8232
8108
8151
8212
8035
8322
7940
8407
7896
8406
7914
8334
8006
8223
8131
8108
8229
8025
8267
8015
8250
8073
8162
8182
8052
8262
7982
8299
7992
8255
8073
8167
8188
8049
8305
7935
8386
7895
8389
7929
8330
8018
8218
8136
8119
8210
8060
8239
8076
8180
8160
8077
8268
7982
8353
7926
8388
7943
8321
8032
8229
8154
8092
8259
7995
8332
7956
8326
8002
8248
8090
8157
8195
8064
8257
8035
8231
8079
8151
8173
8045
8291
7928
8381
7880
8403
7895
8347
7981
8238
8104
8125
8209
8043
8255
8030
8244
8092
8157
8188
8058
8289
7990
8328
7976
8291
8056
8200
8166
8077
8287
7958
8377
7913
8394
7939
8327
8017
8220
8127
8125
8203
8053
8223
8066
8176
8153
8078
8267
7975
8359
7910
8391
7916
8338
7991
8243
8116
8125
8234
8017
8312
7982
8318
8010
8244
8093
8154
8198
8058
8271
8028
8261
8077
8192
8178
8083
8295
7962
8389
7897
8418
7902
8375
7969
8259
8088
8142
8191
8062
8245
8039
8227
8093
8145
8196
8047
8294
7975
8340
7949
8309
8009
8226
8133
8114
8252
7990
8353
7921
8364
7929
8324
8009
8214
8115
8113
8202
8066
8249
8073
8192
8149
8096
8260
7983
8363
7918
8410
7906
8376
7972
8274
8088
8153
8202
8053
8277
7987
8295
8018
8236
8098
8130
8194
8041
8270
8001
8265
8037
8203
8141
8089
8260
7965
8369
7907
8410
7900
8377
7959
8271
8071
8163
8186
8075
8239
8050
8220
8099
8153
8200
8045
8302
7961
8366
7942
8350
7991
8260
8108
8146
8222
8029
8326
7953
8363
7949
8317
8014
8224
8110
8115
8205
8045
8233
8054
8196
8139
8109
8248
7989
8356
7906
8401
7891
8389
7944
8288
8063
8180
8178
8073
8261
8011
8284
8030
8232
8110
8127
8213
8040
8293
8002
8297
8031
8235
8130
8133
8251
8005
8353
7920
8401
7901
8381
7957
8287
8054
8170
8166
8081
8225
8055
8219
8092
8147
8194
8039
8299
7951
8362
7922
8364
7954
8273
8058
8151
8184
8044
8293
7968
8346
7966
8321
8034
8230
8123
8121
8220
8052
8260
8045
8218
8133
8134
8234
8006
8353
7924
8417
7890
8403
7940
8323
8051
8209
8156
8099
8236
8022
8259
8030
8200
8105
8107
8212
8019
8294
7968
8308
7985
8245
8084
8138
8197
8023
8314
7928
8388
7906
8377
7960
8299
8053
8189
8158
8097
8226
8062
8228
8093
8161
8196
8046
8311
7962
8383
7917
8395
7948
8319
8047
8202
8167
8078
8265
7984
8320
7973
8289
8019
8210
8112
8104
8212
8035
8265
8024
8229
8094
8141
8210
8018
8322
7919
8402
7881
8402
7919
8334
8013
8219
8134
8121
8223
8047
8262
8057
8215
8116
8110
8220
8015
8316
7965
8343
7980
8285
8073
8190
8186
8058
8293
7948
8368
7918
8368
7956
8301
8039
8183
8152
8092
8217
8053
8217
8088
8158
8181
8047
8292
7950
8378
7894
8397
7918
8332
8002
8229
8135
8109
8245
8011
8305
7994
8291
8045
8213
8136
8112
8231
8033
8288
8023
8259
8090
8179
8202
8063
8315
7941
8393
7892
8408
7909
8344
7998
8244
8123
8132
8205
8051
8231
8049
8201
8117
8113
8220
8009
8324
7942
8357
7952
8304
8028
8209
8150
8087
8264
7977
8357
7936
8359
7961
8293
8050
8198
8159
8097
8244
8063
8233
8075
8181
8176
8075
8290
7967
8390
7910
8416
7910
8372
7993
8256
8105
8132
8210
8027
8273
8005
8273
8038
8190
8124
8082
8230
8014
8292
7990
8263
8052
8186
8157
8073
8276
7952
8386
7896
8404
7911
8360
7991
8251
8105
8148
8201
8070
8253
8071
8216
8138
8127
8234
8011
8336
7938
8375
7932
8334
8000
8246
8118
8118
8232
7999
8311
7946
8339
7973
8295
8047
8184
8153
8088
8220
8040
8234
8060
8186
8158
8083
8273
7970
8381
7906
8416
7893
8373
7954
8270
8078
8164
8199
8074
8261
8026
8268
8055
8191
8148
8085
8241
8011
8315
7984
8301
8027
8224
8138
8107
8259
7977
8363
7909
8393
7907
8357
7978
8259
8094
8150
8183
8069
8239
8058
8201
8126
8122
8231
8006
8331
7927
8378
7918
8366
7970
8268
8085
8154
8211
8038
8299
7974
8335
7982
8286
8059
8189
8161
8083
8240
8035
8259
8051
8207
8137
8099
8250
7983
8360
7894
8405
7892
8393
7953
8295
8066
8181
8174
8067
8238
8025
8250
8061
8182
8150
8088
8268
7999
8322
7970
8329
7996
8247
8100
8131
8220
8014
8325
7922
8384
7920
8354
7987
8256
8082
8163
8186
8080
8249
8065
8214
8123
8133
8225
8022
8340
7938
8396
7904
8390
7954
8300
8067
8183
8181
8071
8267
7992
8317
7995
8275
8059
8178
8161
8070
8250
8018
8268
8025
8222
8114
8122
8238
8000
8343
7918
8408
7891
8395
7930
8308
8026
8195
8155
8100
8225
8051
8260
8078
8193
8175
8091
8269
7990
8341
7950
8349
7981
8280
8072
8167
8194
8034
8313
7952
8365
7932
8348
7987
8264
8080
8163
8175
8065
8230
8043
8205
8105
8133
8206
8022
8308
7930
8394
7892
8399
7927
8318
8038
8201
8149
8097
8250
8010
8301
8012
8268
8072
8174
8176
8067
8258
8009
8296
8021
8256
8097
8153
8211
8037
8326
7931
8405
7894
8397
7926
8328
8027
8214
8136
8112
8212
8050
8227
8069
8176
8150
8076
8255
7982
8346
7933
8364
7951
8306
8046
8197
8172
8074
8277
7968
8350
7952
8342
7993
8252
8081
8156
8183
8072
8251
8053
8230
8104
8156
8207
8052
8321
7943
8399
7879
8407
7908
8336
7989
8230
8128
8120
8228
8032
8284
8029
8256
8075
8165
8176
8059
8272
7998
8309
7992
8269
8065
8173
8173
8053
8304
7952
8386
7905
8394
7935
8329
8020
8227
8138
8137
8221
8071
8239
8077
8186
8162
8086
8265
7989
8364
7928
8390
7934
8329
8018
8230
8137
8111
8252
7992
8326
7960
8323
8000
8243
8080
8148
8179
8058
8249
8033
8242
8079
8165
8186
8062
8295
7942
8389
7893
8420
7902
8358
7983
8247
8102
8127
8198
8049
8254
8039
8247
8087
8162
8187
8056
8290
7990
8332
7975
8297
8044
8205
8151
8085
8273
7971
8364
7919
8383
7933
8329
8012
8219
8118
8125
8195
8059
8235
8066
8184
8146
8093
8258
7987
8362
7906
8388
7917
8365
7980
8259
8104
8142
8223
8026
8296
7988
8319
8014
8260
8091
8157
8197
8063
8268
8026
8265
8073
8200
8162
8087
8281
7965
8378
7901
8411
7895
8375
7962
8273
8082
8156
8181
8061
8243
8047
8236
8086
8145
8179
8041
8286
7961
8341
7947
8313
7995
8230
8113
8122
8244
8002
8340
7934
8373
7943
8336
8013
8236
8126
8139
8208
8062
8250
8071
8204
8141
8106
8258
8000
8366
7915
8413
7905
8394
7963
8281
8071
8156
8182
8050
8257
7992
8286
8015
8235
8094
8135
8201
8049
8283
8005
8272
8035
8216
8133
8107
8253
7982
8367
7914
8414
7900
8389
7956
8278
8069
8171
8165
8082
8244
8064
8240
8097
8160
8199
8053
8303
7971
8368
7939
8356
7983
8275
8093
8153
8211
8033
8309
7949
8351
7942
8317
8010
8219
8102
8110
8201
8053
8245
8052
8206
8126
8114
8231
7987
8342
7906
8404
7886
8390
7939
8311
8049
8191
8166
8086
8250
8016
8278
8025
8220
8102
8134
8213
8054
8302
7997
8311
8015
8247
8106
8139
8231
8019
8330
7918
8395
7899
8380
7955
8299
8049
8180
8150
8070
8204
8043
8218
8086
8156
8190
8045
8298
7955
8364
7911
8368
7955
8298
8053
8176
8181
8063
8286
7971
8341
7959
8317
8026
8232
8121
8118
8210
8051
8259
8050
8225
8115
8140
8229
8021
8336
7922
8407
7884
8400
7926
8318
8019
8206
8143
8105
8235
8031
8264
8040
8217
8108
8114
8207
8021
8300
7974
8312
7999
8268
8085
8162
8198
8035
8314
7935
8383
7912
8384
7958
8308
8051
8192
8158
8098
8229
8064
8224
8103
8171
8196
8059
8314
7960
8384
7917
8391
7931
8318
8031
8202
8157
8084
8265
7993
8321
7976
8300
8030
8222
8125
8110
8215
8036
8265
8028
8241
8103
8154
8201
8037
8321
7928
8397
7891
8414
7918
8349
8007
8232
8131
8120
8218
8048
8263
8057
8221
8128
8121
8230
8029
8322
7972
8352
7976
8292
8053
8188
8174
8065
8292
7959
8363
7922
8363
7947
8294
8038
8188
8149
8087
8216
8060
8226
8078
8165
8184
8058
8286
7959
8378
7901
8399
7920
8340
8000
8243
8131
8121
8238
8017
8296
7995
8293
8035
8209
8130
8118
8241
8038
8293
8017
8268
8090
8180
8186
8056
8293
7942
8391
7887
8415
7914
8355
7989
8243
8110
8133
8199
8055
8230
8051
8196
8111
8102
8210
8008
8320
7953
8357
7950
8319
8031
8221
8139
8102
8260
7986
8351
7942
8364
7969
8302
8052
8198
8157
8098
8230
8057
8237
8086
8183
8172
8081
8284
7972
8385
7901
8408
7906
8373
7986
8264
8103
8150
8216
8042
8268
7997
8268
8032
8183
8118
8084
8217
8013
8295
7990
8271
8053
8195
8153
8084
8281
7953
8363
7896
8401
7906
8352
7983
8254
8098
8149
8194
8076
8251
8069
8220
8138
8130
8234
8013
8335
7948
8382
7933
8341
7989
8244
8102
8121
8219
8002
8311
7955
8347
7985
8303
8053
8192
8147
8088
8217
8026
8229
8054
8195
8156
8099
8270
7974
8385
7904
8423
7900
8382
7964
8285
8074
8162
8183
8073
8258
8036
8282
8072
8209
8146
8091
8239
7993
8302
7972
8296
8010
8212
8114
8094
8233
7969
8332
7906
8392
7907
8352
7965
8238
8052
8133
8168
8065
8243
8074
8224
8149
8150
8244
8031
8349
7951
8400
7916
8362
7964
8269
8065
8141
8190
8037
8278
7963
8314
7966
8276
8045
8172
8127
8067
8237
8032
8250
8048
8219
8145
8128
8287
8033
8402
7945
8469
7950
8455
8009
8362
8099
8221
8190
8103
8234
8015
8230
8044
8175
8148
8085
8237
7964
8267
7900
8282
7936
8202
8046
8098
8179
7981
8294
7924
8379
7917
8349
7981
8302
8139
8217
8232
8130
8302
8126
8274
8200
8231
8313
8106
8382
7959
8406
7909
8384
7931
8291
8038
8172
8141
8026
8202
7926
8227
7925
8195
7993
8119
8116
8066
8239
8010
8288
8060
8273
8144
8152
8240
8006
8334
7916
8404
7895
8407
7935
8304
8030
8216
8177
8135
8250
8082
8287
8120
8239
8204
8115
8287
8007
8347
7956
8358
7976
8291
8071
8184
8191
8063
8305
7958
8362
7930
8340
7965
8237
8043
8137
8157
8043
8191
8025
8190
8064
8112
8177
8005
8292
7912
8374
7879
8393
7919
8330
8029
8216
8129
8082
8227
8007
8286
7995
8242
8052
8164
8163
8072
8254
8000
8290
7998
8233
8063
8157
8194
8020
8287
7908
8370
7861
8365
7904
8315
8023
8212
8118
8106
8209
8067
8260
8087
8184
8134
8034
8187
7918
8286
7877
8323
7904
8288
8026
8186
8132
8053
8247
7979
8368
7991
8382
8026
8310
8118
8207
8235
8120
8269
8047
8233
8088
8153
8200
8075
8364
8016
8488
7990
8492
7983
8408
8048
8282
8149
8141
8221
8036
8266
8021
8253
8068
8161
8177
8055
8258
7982
8295
7979
8272
8053
8162
8138
8015
8229
7900
8339
7875
8375
7907
8305
7977
8190
8097
8093
8194
8047
8192
8028
8136
8105
8029
8229
7964
8340
7938
8432
8011
8442
8093
8284
8163
8139
8296
8089
8383
8010
8361
8029
8296
8093
8151
8181
8061
8242
8014
8232
8053
8152
8125
7995
8237
7897
8332
7848
8386
7884
8350
7956
8244
8090
8138
8205
8056
8256
8048
8257
8110
8206
8237
8109
8333
8012
8353
8021
8361
8080
8256
8182
8112
8309
8059
8427
7948
8408
7949
8340
8013
8231
8124
8134
8202
8055
8232
8063
8172
8135
8068
8234
7951
8312
7862
8347
7897
8371
8000
8297
8145
8177
8268
8120
8392
8060
8353
8021
8251
8079
8154
8197
8070
8288
8056
8285
8087
8221
8170
8082
8257
7964
8395
7917
8422
7895
8370
7952
8257
8052
8119
8154
8040
8211
8017
8196
8058
8117
8161
8024
8274
7971
8337
7928
8301
7991
8223
8110
8139
8266
8048
8389
7966
8396
7946
8332
8014
8233
8119
8131
8195
8050
8218
8049
8177
8119
8072
8212
7959
8333
7907
8423
7917
8363
7918
8244
8039
8128
8157
8016
8253
8023
8366
8132
8358
8197
8213
8251
8096
8316
8043
8318
8070
8247
8158
8131
8280
8009
8376
7916
8403
7883
8373
7958
8300
8093
8196
8191
8119
8264
8066
8223
8098
8159
8193
8040
8287
7954
8349
7927
8334
7936
8232
8087
8168
8234
8064
8354
7991
8373
7961
8345
8038
8235
8130
8144
8216
8062
8243
8055
8207
8131
8116
8236
7991
8333
7872
8360
7829
8330
7879
8244
7991
8133
8115
8054
8253
8029
8288
8046
8259
8128
8137
8214
8038
8266
7964
8279
8002
8237
8140
8182
8294
8061
8359
7925
8394
7931
8437
8025
8353
8087
8192
8156
8074
8200
8024
8185
8056
8101
8133
7977
8226
7905
8332
7895
8333
7921
8253
8021
8138
8145
8047
8297
7974
8329
7964
8318
8019
8239
8173
8213
8320
8145
8320
8077
8220
8115
8123
8225
8027
8372
7943
8424
7893
8403
7922
8327
8037
8191
8122
8043
8183
7986
8189
7961
8134
8035
8040
8138
7972
8255
7961
8345
8055
8345
8176
8243
8274
8092
8395
8024
8466
7972
8439
8020
8370
8138
8266
8207
8120
8237
8065
8217
8106
8183
8218
8059
8291
7942
8371
7894
8361
7889
8234
7962
8138
8112
8053
8264
8004
8325
7952
8246
7950
8130
8050
8048
8154
8005
8225
8019
8250
8136
8181
8259
8085
8373
7953
8419
7880
8383
7902
8309
7983
8199
8107
8093
8200
8034
8263
8066
8216
8107
8111
8225
8023
8300
7961
8340
7978
8313
8120
8247
8244
8136
8357
7997
8386
7910
8359
7937
8276
8044
8189
8145
8087
8216
8041
8191
8066
8148
8169
8021
8250
7905
8343
7886
8408
7947
8380
8038
8246
8151
8116
8240
8024
8300
7998
8304
8064
8242
8167
8132
8252
8037
8279
8008
8235
8061
8163
8197
8058
8297
7922
8371
7842
8329
7812
8247
7934
8208
8110
8143
8239
8167
8384
8177
8308
8178
8142
8239
8033
8342
7966
8360
7958
8301
8023
8207
8150
8091
8265
7959
8339
7927
8348
7984
8341
8114
8250
8197
8124
8249
8062
8227
8078
8172
8181
8067
8281
7943
8350
7859
8364
7860
8306
7940
8220
8083
8111
8197
8000
8241
7990
8264
8029
8152
8065
8013
8157
7986
8276
8010
8297
8097
8249
8242
8135
8328
7972
8383
7909
8422
7921
8364
7987
8249
8109
8151
8197
8086
8290
8107
8234
8163
8149
8260
8011
8307
7902
8325
7877
8265
7936
8179
8065
8057
8183
7951
8295
7950
8356
7980
8328
8103
8194
8098
8019
8147
8000
8225
8080
8213
8218
8163
8375
8084
8499
8020
8511
7966
8423
8007
8319
8128
8182
8212
8060
8269
8027
8260
8051
8197
8163
8098
8256
8005
8297
7971
8272
8013
8198
8126
8088
8263
7996
8381
7923
8400
7904
8327
7938
8216
8054
8111
8140
8024
8169
8011
8162
8095
8125
8241
8023
8368
7970
8426
7959
8387
7990
8277
8103
8154
8219
8048
8313
7990
8346
7990
8264
8032
8159
8124
8063
8225
8024
8247
8048
8182
8124
8073
8231
7955
8350
7880
8391
7888
8408
7981
8313
8084
8186
8172
8059
8220
8020
8247
8056
8173
8150
8070
8245
7980
8281
7912
8286
8014
8277
8149
8153
8248
8035
8370
7962
8413
7955
8388
8011
8280
8115
8171
8201
8093
8261
8080
8210
8131
8140
8245
8016
8345
7929
8386
7907
8389
7975
8303
8058
8137
8141
8026
8247
7973
8311
7994
8276
8068
8183
8178
8091
8256
8032
8295
8067
8251
8143
8109
8226
7976
8324
7900
8411
7887
8391
7951
8328
8066
8223
8200
8146
8280
8089
8285
8096
8192
8158
8048
8220
7929
8266
7874
8263
7914
8215
8036
8124
8201
8056
8339
7980
8401
7959
8371
8010
8281
8118
8183
8202
8076
8234
8049
8226
8144
8159
8234
8024
8312
7916
8398
7903
8406
7943
8316
8039
8204
8164
8082
8246
8000
8269
7980
8235
8043
8147
8169
8065
8251
8000
8277
8028
8256
8115
8137
8193
7981
8296
7895
8388
7892
8410
7957
8335
8042
8218
8156
8120
8232
8074
8255
8086
8178
8155
8054
8233
7940
8310
7922
8368
7979
8319
8090
8231
8214
8084
8288
7959
8342
7938
8343
8008
8271
8109
8191
8215
8107
8275
8078
8239
8111
8122
8181
8010
8308
7924
8389
7882
8388
7896
8306
7997
8228
8133
8107
8229
8029
8280
8026
8274
8114
8216
8243
8107
8288
7987
8285
7978
8241
8055
8155
8196
8068
8324
7927
8360
7870
8367
7916
8318
8020
8220
8144
8129
8222
8066
8236
8075
8168
8146
8052
8246
7961
8337
7893
8341
7901
8289
8004
8218
8147
8084
8254
7983
8328
7964
8348
8011
8249
8091
8170
8211
8083
8263
8048
8248
8099
8168
8198
8057
8306
7939
8383
7869
8389
7891
8346
7983
8236
8118
8151
8247
8084
8302
8064
8251
8094
8166
8207
8074
8302
8002
8344
7986
8297
8049
8189
8157
8067
8270
7947
8358
7893
8362
7925
8330
8024
8221
8136
8144
8223
8074
8261
8091
8178
8133
8026
8194
7891
8286
7860
8365
7938
8388
8053
8299
8173
8144
8238
8036
8344
8019
8358
8069
8306
8152
8183
8223
8068
8269
8021
8247
8082
8184
8179
8080
8289
7941
8367
7863
8377
7877
8363
7970
8242
8086
8138
8175
8036
8226
8041
8219
8089
8145
8192
8036
8290
7966
8327
7946
8291
8003
8220
8140
8102
8260
7999
8373
7938
8365
7914
8299
7999
8218
8144
8164
8252
8107
8283
8105
8212
8172
8101
8265
7982
8368
7918
8407
7906
8376
7975
8267
8104
8166
8225
8041
8281
7982
8278
8006
8216
8078
8112
8191
8036
8259
7986
8232
8027
8190
8121
8035
8219
7927
8350
7883
8390
7870
8340
7943
8278
8130
8239
8253
8139
8285
8076
8249
8128
8184
8242
8081
8336
7991
8378
7964
8368
8034
8274
8124
8141
8236
8008
8316
7933
8350
7938
8307
8011
8211
8107
8107
8196
8051
8250
8072
8217
8151
8097
8232
7952
8313
7866
8363
7856
8371
7961
8309
8087
8183
8199
8092
8288
8042
8317
8056
8253
8125
8134
8219
8039
8289
8004
8289
8026
8222
8117
8108
8230
7979
8341
7908
8405
7893
8369
7940
8241
8006
8119
8116
8041
8192
8035
8201
8091
8154
8219
8080
8350
7987
8398
7945
8374
7973
8280
8077
8179
8213
8050
8302
7967
8356
7984
8343
8068
8261
8163
8161
8253
8074
8283
8085
8235
8130
8106
8215
7968
8305
7864
8353
7817
8326
7873
8265
8001
8183
8160
8105
8270
8076
8315
8074
8226
8136
8151
8256
8066
8335
8015
8352
8042
8293
8133
8169
8235
8040
8332
7921
8367
7889
8355
7945
8274
8047
8178
8161
8093
8222
8059
8219
8099
8153
8194
8035
8274
7924
8349
7875
8353
7924
8299
8053
8212
8175
8070
8269
7984
8317
7965
8278
8002
8181
8093
8080
8188
8014
8235
8017
8206
8075
8094
8178
7985
8316
7942
8433
7898
8430
7966
8388
8091
8283
8201
8186
8276
8065
8256
8063
8229
8150
8140
8240
8030
8323
7980
8355
7993
8297
8083
8180
8182
8037
8275
7922
8345
7895
8345
7942
8277
8041
8190
8154
8086
8216
8053
8220
8090
8150
8184
8059
8322
7972
8403
7939
8434
7958
8373
8049
8251
8168
8130
8265
8034
8334
8016
8313
8061
8213
8134
8102
8213
8002
8232
7980
8202
8030
8109
8138
7983
8254
7902
8368
7864
8375
7893
8327
7982
8223
8124
8144
8220
8071
8272
8091
8234
8167
8144
8248
8024
8340
7976
8372
7962
8315
8046
8215
8158
8091
8282
7990
8369
7942
8357
7964
8296
8055
8190
8148
8084
8217
8044
8219
8076
8157
8159
8046
8281
7957
8390
7900
8393
7868
8300
7942
8210
8085
8101
8185
8005
8254
7988
8259
8038
8218
8181
8164
8304
8070
8319
8016
8279
8067
8207
8192
8091
8304
7976
8406
7928
8440
7950
8383
8026
8286
8151
8184
8239
8100
8276
8095
8224
8155
8139
8238
7999
8323
7926
8351
7914
8313
7989
8223
8108
8095
8220
7969
8301
7927
8319
7939
8239
8001
8141
8113
8075
8221
8046
8252
8083
8181
8162
8082
8280
7979
8393
7931
8453
7925
8403
7995
8301
8120
8189
8231
8101
8282
8043
8275
8058
8184
8127
8065
8217
7977
8277
7960
8280
8017
8212
8138
8095
8262
7987
8370
7920
8407
7933
8365
7992
8255
8072
8129
8169
8047
8168
7997
8127
8087
8109
8239
8027
8351
7935
8370
7906
8315
7926
8231
8076
8144
8226
8079
8341
7994
8337
8004
8306
8093
8225
8209
8162
8318
8110
8326
8119
8242
8179
8120
8279
7995
8376
7900
8413
7884
8373
7938
8283
8062
8171
8167
8060
8235
8023
8236
8052
8167
8150
8069
8234
7976
8300
7942
8289
7980
8234
8111
8131
8222
7987
8325
7939
8396
7940
8364
7992
8257
8081
8148
8173
8067
8243
8071
8205
8117
8127
8226
8008
8333
7926
8408
7934
8416
7967
8301
8059
8159
8163
8047
8249
7968
8277
7969
8246
8040
8161
8138
8051
8225
8000
8234
8014
8219
8145
8159
8270
8047
8393
7949
8443
7924
8416
7948
8305
8031
8186
8142
8072
8210
8034
8235
8079
8186
8169
8086
8290
8028
8381
7996
8388
8012
8294
8084
8171
8211
8061
8320
7959
8373
7933
8332
7971
8246
8064
8149
8164
8051
8223
8046
8206
8099
8100
8179
7991
8299
7910
8369
7866
8375
7916
8312
8039
8220
8183
8140
8288
8045
8324
8040
8293
8109
8201
8198
8092
8271
8020
8288
8008
8238
8082
8131
8192
7997
8297
7909
8390
7897
8421
7956
8334
8009
8182
8105
8052
8166
8026
8231
8076
8210
8220
8144
8316
8011
8362
7934
8371
7971
8306
8051
8195
8181
8089
8298
8012
8393
7999
8393
8040
8303
8111
8183
8196
8074
8248
8058
8240
8113
8155
8198
8034
8296
7927
8381
7882
8395
7897
8332
7994
8225
8120
8100
8201
8005
8239
8002
8241
8069
8160
8182
8060
8274
7997
8308
7986
8269
8072
8181
8188
8054
8282
7932
8369
7884
8374
7912
8311
7991
8207
8130
8138
8224
8070
8249
8085
8177
8157
8100
8279
8005
8380
7933
8386
7932
8325
8010
8236
8149
8111
8260
8006
8326
7961
8303
7969
8214
8049
8116
8162
8054
8258
8040
8227
8092
8189
8203
8065
8289
7940
8384
7895
8421
7920
8393
8007
8272
8134
8157
8205
8051
8249
8035
8247
8089
8155
8172
8041
8273
7996
8361
8011
8333
8058
8215
8159
8088
8263
7953
8340
7890
8350
7899
8307
8001
8233
8160
8190
8286
8132
8290
8124
8231
8180
8106
8280
8005
8385
7939
8416
7921
8363
7990
8256
8106
8131
8218
8017
8286
7969
8285
7982
8214
8058
8105
8165
8033
8246
8019
8270
8094
8209
8167
8077
8274
7957
8361
7875
8394
7896
8373
7977
8273
8095
8162
8189
8060
8227
8039
8234
8082
8141
8181
8044
8300
7982
8349
7957
8323
8015
8241
8121
8116
8247
8006
8359
7950
8387
7943
8326
8004
8223
8122
8134
8204
8067
8257
8083
8213
8157
8102
8232
7958
8313
7871
8370
7878
8374
7969
8289
8082
8173
8206
8056
8267
7993
8286
8013
8224
8095
8147
8208
8053
8279
8003
8267
8037
8213
8147
8118
8272
7995
8379
7915
8416
7897
8383
7966
8283
8072
8185
8186
8095
8242
8065
8241
8103
8160
8204
8046
8305
7970
8356
7939
8354
7995
8272
8095
8149
8208
8028
8308
7953
8359
7952
8319
8020
8229
8111
8123
8210
8060
8251
8062
8208
8132
8116
8242
7998
8352
7920
8411
7896
8402
7955
8318
8066
8199
8172
8093
8261
8027
8285
8039
8233
8117
8136
8212
8045
8291
7991
8286
8000
8223
8093
8119
8216
7995
8331
7923
8400
7893
8371
7950
8290
8048
8185
8155
8086
8219
8056
8216
8091
8161
8204
8059
8308
7968
8387
7938
8386
7962
8298
8069
8188
8193
8076
8291
7983
8344
7976
8323
8028
8232
8118
8120
8215
8053
8265
8055
8230
8118
8133
8217
7998
8311
7903
8377
7851
8381
7912
8327
8027
8218
8155
8109
8231
8027
8258
8042
8223
8118
8147
8233
8037
8306
7989
8330
7999
8273
8086
8177
8213
8065
8325
7953
8391
7916
8371
7954
8305
8048
8194
8151
8097
8223
8066
8226
8092
8164
8194
8052
8300
7960
8382
7913
8391
7926
8305
8013
8198
8152
8091
8262
8008
8323
7972
8288
8022
8211
8124
8120
8222
8054
8275
8037
8246
8103
8159
8208
8035
8314
7937
8408
7892
8422
7931
8363
8021
8247
8144
8135
8223
8052
8265
8065
8219
8120
8117
8223
8022
8311
7956
8325
7949
8273
8030
8179
8153
8058
8271
7948
8356
7928
8378
7975
8323
8061
8208
8158
8097
8207
8043
8212
8075
8164
8174
8052
8292
7969
8402
7933
8418
7923
8374
8035
8274
8160
8152
8254
8038
8315
8012
8303
8051
8215
8137
8110
8226
8027
8274
8005
8250
8064
8167
8169
8052
8293
7945
8384
7883
8403
7903
8349
7982
8232
8106
8134
8188
8058
8229
8054
8208
8113
8116
8224
8016
8322
7954
8366
7947
8319
8025
8227
8140
8100
8250
7984
8345
7945
8358
7967
8299
8046
8203
8150
8097
8219
8045
8233
8074
8167
8158
8072
8267
7960
8366
7885
8397
7885
8355
7966
8258
8087
8139
8199
8036
8263
8008
8274
8048
8204
8136
8109
8237
8027
8303
7996
8276
8054
8208
8164
8095
8278
7978
8383
7914
8414
7919
8369
7995
8267
8111
8158
8197
8081
8250
8074
8212
8134
8127
8230
8020
8330
7940
8365
7915
8331
7979
8246
8098
8125
8217
7996
8303
7948
8341
7965
8289
8045
8198
8159
8089
8235
8045
8238
8066
8203
8162
8103
8278
7992
8389
7913
8427
7910
8396
7969
8293
8084
8176
8190
8077
8257
8033
8276
8059
8196
8148
8093
8236
8008
8309
7973
8293
8012
8216
8109
8102
8232
7978
8341
7916
8391
7921
8371
7999
8272
8090
8164
8185
8071
8238
8061
8200
8104
8110
8213
8012
8328
7930
8380
7907
8367
7968
8290
8088
8180
8224
8081
8329
8014
8361
8018
8304
8066
8201
8171
8103
8254
8041
8260
8040
8202
8128
8104
8234
7969
8344
7891
8398
7876
8383
7932
8291
8049
8183
8163
8090
8235
8043
8260
8069
8193
8161
8093
8269
8012
8338
7970
8342
8008
8267
8104
8154
8223
8030
8324
7943
8379
7927
8362
7990
8273
8087
8170
8178
8053
8189
8032
8181
8079
8101
8177
7985
8290
7905
8365
7886
8385
7959
8329
8079
8223
8207
8110
8289
8023
8327
8016
8293
8075
8194
8169
8086
8263
8031
8293
8040
8243
8122
8144
8237
8021
8340
7928
8412
7901
8408
7946
8343
8045
8218
8162
8118
8237
8060
8248
8070
8192
8153
8080
8248
7985
8327
7935
8341
7965
8283
8062
8170
8182
8049
8297
7954
8353
7922
8334
7970
8253
8067
8169
8178
8072
8236
8061
8233
8118
8156
8210
8037
8311
7932
8392
7899
8406
7916
8330
8021
8220
8140
8101
8235
8012
8276
8007
8269
8070
8179
8172
8069
8259
8008
8293
8004
8246
8081
8146
8190
8031
8302
7929
8384
7891
8395
7928
8332
8015
8222
8136
8119
8215
8064
8241
8071
8191
8165
8096
8266
7993
8349
7931
8370
7954
8322
8040
8221
8162
8089
8269
7996
8359
7959
8342
7991
8255
8076
8165
8179
8075
8255
8047
8237
8096
8163
8197
8038
8294
7933
8383
7889
8411
7900
8340
7992
8239
8112
8116
8215
8037
8271
8032
8260
8080
8170
8180
8076
8277
8000
8319
7994
8284
8064
8197
8178
8072
8294
7962
8389
7913
8403
7936
8344
8013
8230
8125
8130
8210
8065
8245
8081
8196
8157
8085
8255
7980
8348
7919
8389
7926
8335
7999
8243
8133
8124
8246
8006
8314
7963
8321
7997
8243
8070
8156
8182
8071
8254
8048
8261
8094
8191
8191
8082
8294
7969
8397
7900
8426
7904
8374
7978
8263
8095
8148
8198
8067
8259
8045
8254
8097
8169
8183
8053
8281
7982
8328
7965
8296
8035
8212
8137
8096
8258
7978
8356
7921
8375
7930
8337
8009
8233
8122
8139
8202
8074
8246
8077
8191
8155
8104
8256
7994
8366
7924
8405
7915
8372
7982
8272
8111
8155
8225
8049
8306
7994
8319
8014
8259
8092
8163
8200
8059
8266
8020
8260
8053
8198
8149
8089
8272
7965
8366
7893
8410
7897
8375
7957
8277
8079
8168
8186
8071
8235
8045
8241
8087
8163
8194
8060
8291
7968
8347
7961
8341
7998
8247
8112
8128
8238
8008
8336
7944
8367
7946
8335
8014
8240
8106
8138
8203
8062
8252
8065
8192
8130
8101
8233
7990
8343
7904
8391
7889
8375
7944
8285
8061
8175
8188
8070
8276
8012
8302
8024
8250
8101
8150
8204
8052
8280
8011
8287
8034
8230
8127
8126
8247
7995
8365
7923
8417
7895
8390
7963
8305
8077
8196
8185
8094
8235
8051
8215
8083
8149
8182
8039
8284
7959
8351
7924
8353
7971
8271
8073
8150
8198
8036
8299
7957
8351
7953
8327
8007
8235
8112
8138
8207
8062
8250
8062
8220
8136
8128
8233
8003
8344
7922
8410
7889
8402
7943
8322
8047
8205
8165
8098
8255
8027
8279
8031
8243
8101
8145
8206
8041
8288
7983
8303
8001
8242
8097
8138
8214
8019
8326
7922
8397
7905
8380
7942
8298
8050
8192
8164
8098
8228
8067
8231
8100
8165
8194
8057
8303
7967
8380
7927
8383
7955
8306
8063
8195
8186
8077
8284
7991
8342
7972
8317
8019
8229
8114
8128
8212
8047
8258
8039
8232
8110
8138
8214
8014
8328
7923
8408
7887
8403
7926
8334
8026
8220
8144
8115
8227
8041
8268
8047
8224
8113
8143
8217
8040
8311
7976
8333
7992
8282
8086
8176
8205
8055
8324
7966
8398
7916
8377
7952
8312
8044
8197
8147
8096
8218
8057
8223
8088
8161
8182
8051
8285
7958
8371
7897
8386
7931
8324
8031
8216
8146
8095
8251
7998
8321
7980
8310
8028
8223
8123
8119
8219
8046
8278
8034
8244
8101
8157
8206
8045
8321
7943
8410
7900
8427
7938
8369
8021
8242
8135
8134
8214
8051
8247
8046
8209
8109
8115
8213
8011
8306
7954
8333
7956
8291
8045
8183
8167
8072
8282
7964
8365
7922
8366
7952
8307
8046
8203
8153
8107
8230
8068
8244
8099
8179
8191
8062
8290
7962
8379
7905
8405
7922
8349
8004
8247
8128
8123
8239
8029
8300
7997
8292
8036
8205
8127
8106
8218
8029
8282
8012
8254
8072
8168
8174
8053
8293
7939
8391
7896
8413
7915
8353
7997
8243
8111
8133
8209
8063
8254
8064
8213
8125
8137
8242
8038
8336
7960
8371
7949
8315
8031
8223
8147
8097
8262
7984
8352
7947
8362
7966
8301
8044
8192
8149
8096
8224
8053
8237
8081
8178
8173
8076
8272
7955
8371
7887
8402
7898
8361
7969
8254
8101
8143
8213
8038
8276
8014
8282
8049
8206
8148
8104
8240
8025
8301
8004
8282
8058
8199
8165
8089
8290
7971
8385
7906
8411
7921
8365
7987
8260
8105
8145
8193
8072
8240
8068
8202
8118
8108
8223
8002
8323
7935
8368
7926
8337
7992
8246
8116
8136
8237
8009
8317
7955
8348
7976
8301
8058
8203
8160
8097
8243
8051
8247
8065
8200
8161
8091
8271
7976
8384
7903
8413
7891
8382
7965
8280
8087
8168
8198
8074
8257
8020
8263
8061
8191
8152
8087
8244
8011
8304
7973
8296
8019
8220
8129
8101
8251
7985
8359
7907
8397
7920
8365
7993
8274
8111
8174
8204
8079
8237
8062
8206
8130
8123
8235
8021
8333
7932
8382
7911
8358
7968
8283
8091
8157
8210
8051
8298
7978
8336
7989
8285
8060
8186
8167
8092
8243
8039
8252
8049
8202
8142
8102
8261
7982
8361
7902
8412
7898
8392
7956
8297
8060
8173
8169
8088
8241
8041
8259
8072
8196
8167
8087
8262
8003
8326
7967
8312
8002
8248
8110
8135
8239
8025
8349
7938
8394
7929
8359
7984
8259
8082
8156
8189
8068
8245
8064
8206
8126
8122
8221
8014
8329
7925
8391
7908
8375
7951
8294
8067
8173
8189
8070
8283
7990
8319
8001
8273
8063
8180
8174
8074
8259
8031
8288
8047
8217
8126
8128
8245
8002
8358
7916
8422
7898
8404
7951
8315
8063
8211
8165
8096
8227
8038
8242
8067
8177
8160
8080
8259
7983
8325
7932
8326
7968
8260
8080
8162
8211
8044
8322
7953
8371
7936
8355
7992
8263
8086
8161
8189
8080
8244
8058
8216
8119
8137
8223
8027
8335
7926
8402
7900
8409
7943
8324
8044
8208
8171
8099
8258
8017
8302
8015
8269
8077
8173
8171
8065
8261
8002
8278
8018
8239
8100
8141
8211
8009
8322
7925
8410
7891
8397
7930
8316
8037
8203
8144
8106
8223
8051
8243
8083
8184
8169
8077
8272
7995
8351
7948
8376
7970
8302
8066
8190
8182
8072
8289
7972
8360
7955
8344
8000
8263
8087
8155
8189
8065
8239
8043
8217
8107
8140
8210
8029
8320
7936
8397
7887
8396
7917
8335
8016
8225
8143
8117
8236
8029
8283
8023
8257
8091
8169
8188
8068
8281
8010
8312
8009
8272
8085
8172
8202
8047
8319
7947
8399
7902
8399
7943
8330
8028
8217
8137
8117
8209
8061
8233
8079
8177
8163
8066
8253
7963
8344
7915
8371
7934
8315
8034
8222
8154
8093
8270
7993
8334
7963
8330
8002
8252
8086
8154
8194
8072
8262
8049
8238
8108
8168
8199
8058
8311
7945
8408
7899
8420
7921
8373
8006
8249
8126
8127
8226
8045
8250
8021
8222
8075
8131
8175
8040
8279
7980
8322
7978
8283
8055
8194
8172
8063
8288
7963
8380
7913
8389
7940
8329
8021
8226
8133
8125
8226
8080
8247
8088
8188
8173
8081
8268
7979
8375
7925
8399
7928
8348
8003
8246
8128
8124
8243
8013
8309
7976
8315
8014
8242
8089
8133
8194
8057
8268
8032
8257
8073
8179
8175
8065
8290
7949
8389
7895
8415
7904
8373
7985
8260
8095
8148
8200
8062
8251
8047
8243
8095
8159
8208
8048
8302
7976
8349
7969
8324
8044
8240
8151
8106
8265
7983
8353
7923
8376
7939
8329
8018
8228
8131
8114
8205
8057
8227
8066
8181
8145
8080
8255
7972
8356
7908
8400
7905
8367
7976
8265
8101
8140
8215
8051
8294
8000
8310
8033
8236
8108
8139
8217
8060
8286
8014
8271
8065
8202
8162
8097
8291
7973
8392
7912
8425
7913
8377
7966
8267
8080
8161
8182
8062
8230
8053
8209
8091
8136
8191
8031
8296
7954
8350
7944
8327
8000
8243
8112
8121
8236
8004
8328
7947
8367
7958
8330
8037
8229
8137
8121
8214
8062
8258
8076
8197
8148
8108
8261
7997
8369
7913
8410
7892
8385
7960
8290
8073
8164
8183
8063
8259
8008
8276
8020
8223
8112
8121
8208
8033
8281
7990
8284
8044
8234
8138
8112
8254
7984
8362
7909
8408
7914
8381
7966
8277
8078
8176
8177
8087
8230
8064
8227
8109
8158
8210
8039
8319
7965
8378
7933
8364
7980
8282
8089
8163
8214
8049
8305
7966
8355
7964
8315
8022
8219
8124
8117
8211
8047
8244
8050
8206
8134
8116
8238
7997
8356
7908
8409
7882
8394
7940
8315
8056
8195
8167
8090
8252
8030
8286
8050
8220
8129
8119
8225
8031
8314
7984
8324
8013
8259
8111
8149
8226
8025
8336
7939
8402
7925
8389
7971
8299
8068
8192
8172
8098
8234
8056
8211
8086
8132
8176
8016
8277
7928
8361
7901
8374
7940
8295
8045
8177
8172
8069
8273
7983
8341
7984
8319
8049
8230
8149
8116
8226
8045
8266
8042
8231
8114
8144
8236
8042
8360
7931
8416
7895
8405
7930
8331
8026
8217
8145
8107
8221
8041
8263
8046
8208
8117
8108
8222
8010
8307
7957
8328
7981
8275
8070
8167
8196
8051
8306
7947
8376
7920
8371
7959
8303
8057
8193
8166
8098
8231
8068
8230
8101
8162
8197
8054
8306
7957
8392
7911
8404
7940
8338
8031
8226
8148
8100
8258
8007
8312
7990
8283
8034
8203
8127
8098
8222
8024
8277
8023
8253
8096
8169
8205
8049
8321
7940
8405
7889
8398
7922
8349
8009
8232
8129
8123
8216
8056
8255
8062
8204
8127
8109
8242
8026
8329
7959
8361
7967
8313
8048
8209
8166
8086
8287
7970
8357
7939
8361
7971
8296
8051
8182
8154
8089
8225
8051
8234
8091
8171
8188
8054
8289
7949
8384
7885
8401
7902
8343
7994
8244
8121
8129
8233
8034
8286
8013
8279
8056
8204
8159
8105
8250
8027
8301
8014
8275
8079
8191
8176
8072
8305
7961
8393
7901
8415
7919
8349
7996
8241
8116
8140
8199
8059
8238
8060
8197
8131
8101
8231
8004
8333
7938
8365
7937
8320
8007
8228
8132
8106
8253
7996
8341
7952
8349
7979
8292
8056
8191
8161
8097
8248
8053
8249
8087
8190
8181
8078
8291
7971
8394
7900
8424
7914
8376
7977
8265
8093
8143
8197
8043
8256
8008
8267
8052
8183
8152
8076
8234
7999
8302
7988
8287
8047
8202
8148
8097
8277
7972
8374
7913
8402
7923
8357
7984
8244
8107
8147
8199
8073
8247
8077
8211
8145
8127
8247
8011
8344
7933
8380
7923
8363
7993
8268
8117
8145
8238
8041
8315
7973
8331
7977
8284
8057
8178
8166
8078
8244
8038
8251
8061
8198
8163
8093
8275
7969
8371
7900
8414
7899
8386
7963
8289
8080
8171
8191
8070
8255
8036
8254
8073
8192
8167
8077
8267
8005
8329
7983
8319
8022
8239
8130
8118
8247
7991
8348
7922
8389
7924
8354
7993
8260
8104
8150
8181
8070
8235
8057
8195
8130
8112
8232
8008
8340
7929
8400
7908
8376
7963
8280
8084
8160
8200
8060
8291
7989
8325
7998
8275
8072
8182
8177
8080
8259
8031
8267
8049
8214
8142
8112
8260
7986
8371
7913
8418
7893
8387
7950
8300
8062
8182
8171
8076
8236
8043
8250
8075
8176
8164
8076
8276
7995
8343
7960
8341
7998
8263
8102
8146
8225
8031
8329
7950
8387
7938
8350
7989
8251
8085
8148
8185
8069
8246
8065
8211
8134
8134
8242
8019
8351
7942
8417
7917
8403
7958
8309
8050
8172
8169
8069
8258
8002
8294
8000
8249
8069
8161
8171
8055
8260
8007
8276
8028
8229
8119
8127
8231
8003
8342
7919
8407
7893
8399
7950
8307
8050
8202
8162
8107
8229
8059
8250
8090
8185
8179
8082
8285
7988
8355
7943
8371
7981
8284
8073
8174
8204
8051
8308
7964
8369
7949
8344
8005
8249
8088
8148
8190
8064
8241
8054
8213
8118
8139
8228
8020
8334
7931
8410
7899
8402
7929
8322
8042
8207
8158
8100
8252
8023
8294
8025
8256
8092
8161
8196
8064
8284
8005
8311
8014
8257
8096
8153
8211
8032
8331
7930
8400
7898
8390
7941
8312
8035
8206
8148
8114
8215
8050
8229
8071
8164
8166
8061
8269
7971
8357
7919
8370
7946
8307
8054
8195
8170
8073
8279
7978
8349
7959
8328
8009
8245
8105
8150
8203
8069
8266
8051
8237
8118
8159
8213
8037
8325
7935
8407
7896
8418
7927
8336
8008
8227
8134
8113
8230
8038
8273
8038
8242
8090
8136
8194
8043
8289
7983
8319
7991
8279
8081
8178
8193
8061
8314
7953
8385
7903
8387
7935
8318
8020
8198
8143
8123
8229
8075
8247
8094
8178
8180
8075
8280
7975
8372
7923
8390
7937
8331
8034
8228
8150
8102
8257
8003
8323
7972
8320
8016
8232
8095
8124
8188
8041
8250
8023
8231
8089
8156
8189
8046
8300
7941
8396
7894
8419
7912
8363
8001
8251
8124
8139
8221
8057
8267
8052
8241
8104
8149
8208
8047
8308
7984
8341
7974
8308
8054
8209
8171
8081
8275
7962
8363
7924
8378
7946
8326
8026
8214
8140
8108
8211
8062
8224
8080
8174
8166
8070
8266
7966
8366
7911
8398
7913
8358
7992
8249
8124
8136
8233
8027
8298
7995
8310
8037
8237
8111
8128
8218
8057
8282
8028
8267
8077
8195
8185
8080
8301
7969
8392
7897
8416
7909
8368
7977
8258
8101
8144
8188
8058
8234
8050
8214
8102
8135
8209
8034
8310
7963
8353
7957
8316
8010
8229
8134
8110
8255
7992
8337
7935
8368
7958
8325
8038
8220
8139
8112
8216
8064
8246
8082
8200
8170
8102
8282
7981
8373
7910
8411
7905
8373
7967
8269
8085
8147
8204
8035
8272
7997
8279
8022
8205
8110
8110
8225
8046
8303
8017
8289
8062
8211
8155
8093
8263
7964
8371
7902
8413
7911
8379
7978
8266
8094
8165
8198
8085
8257
8061
8221
8108
8132
8215
8037
8323
7958
8372
7942
8353
8003
8261
8110
8140
8231
8013
8320
7956
8361
7959
8304
8030
8199
8133
8101
8208
8043
8237
8064
8196
8151
8101
8258
7981
8365
7909
8418
7890
8394
7964
8290
8084
8172
8185
8067
8260
8016
8274
8045
8213
8131
8122
8246
8034
8310
7998
8304
8039
8237
8137
8120
8251
7990
8361
7921
8399
7907
8374
7972
8278
8085
8163
8176
8079
8227
8058
8212
8110
8134
8206
8028
8323
7947
8374
7916
8356
7965
8273
8084
8160
8206
8042
8298
7965
8345
7978
8312
8048
8204
8151
8097
8238
8055
8273
8067
8218
8144
8124
8259
8004
8369
7912
8413
7882
8398
7946
8306
8055
8195
8170
8095
8245
8031
8262
8050
8199
8123
8092
8235
8006
8306
7966
8319
8002
8245
8098
8137
8223
8018
8334
7935
8398
7922
8373
7978
8279
8069
8180
8181
8093
8248
8071
8222
8123
8154
8213
8033
8330
7945
8392
7913
8389
7956
8306
8059
8188
8179
8071
8276
7986
8322
7979
8284
8045
8193
8152
8093
8239
8028
8261
8037
8224
8121
8132
8223
8000
8337
7918
8416
7896
8410
7936
8321
8033
8213
8155
8116
8239
8057
8272
8070
8206
8148
8088
8236
8000
8327
7959
8342
7975
8276
8079
8169
8193
8049
8309
7952
8374
7930
8364
7971
8271
8061
8170
8161
8078
8220
8051
8210
8095
8144
8201
8031
8304
7938
8392
7902
8396
7926
8322
8031
8210
8160
8103
8251
8016
8312
8005
8287
8063
8200
8165
8090
8252
8031
8295
8025
8260
8100
8161
8210
8044
8328
7937
8398
7892
8403
7926
8335
8020
8224
8136
8116
8207
8050
8246
8067
8198
8146
8094
8252
8003
8342
7946
8354
7956
8303
8049
8205
8174
8080
8294
7973
8359
7944
8345
7975
8280
8062
8173
8168
8084
8245
8056
8232
8107
8169
8202
8064
8315
7961
8405
7905
8409
7916
8342
7995
8232
8121
8119
8226
8029
8271
8008
8263
8066
8186
8173
8091
8270
8020
8309
8001
8271
8067
8168
8176
8051
8294
7943
8385
7898
8404
7928
8346
8012
8240
8134
8138
8217
8072
8248
8073
8197
8161
8101
8261
8004
8351
7942
8385
7956
8350
8032
8230
8141
8107
8244
7990
8333
7960
8334
7983
8269
8064
8163
8171
8073
8251
8038
8232
8074
8178
8183
8070
8293
7960
8398
7900
8422
7915
8372
7980
8255
8102
8139
8206
8045
8261
8032
8257
8074
8184
8182
8083
8278
8002
8329
7990
8298
8050
8206
8154
8092
8276
7971
8374
7908
8392
7927
8340
8005
8238
8110
8128
8199
8067
8240
8070
8191
8148
8106
8244
7994
8352
7922
8388
7911
8359
7988
8255
8115
8135
8232
8029
8310
7984
8343
8018
8284
8088
8172
8181
8075
8260
8035
8259
8065
8204
8169
8103
8290
7972
8382
7902
8426
7906
8381
7968
8280
8082
8156
8179
8059
8246
8039
8245
8080
8169
8174
8068
8285
7991
8335
7961
8304
8007
8221
8109
8110
8244
7996
8349
7932
8393
7939
8349
8006
8251
8118
8148
8213
8080
8255
8079
8204
8147
8123
8257
7998
8355
7920
8404
7910
8376
7961
8284
8079
8155
8193
8047
8280
7982
8302
8001
8257
8083
8161
8191
8065
8265
8020
8271
8039
8212
8139
8107
8254
7984
8366
7907
8413
7896
8387
7957
8292
8073
8186
8175
8089
8234
8055
8245
8095
8175
8195
8065
8294
7987
8355
7959
8359
7998
8270
8099
8141
8216
8028
8312
7940
8360
7941
8322
8003
8236
8099
8138
8193
8061
8240
8057
8205
8130
8114
8229
8006
8346
7916
8404
7895
8394
7944
8308
8060
8198
8184
8091
8274
8024
8298
8023
8246
8090
8153
8197
8060
8289
8012
8291
8033
8248
8133
8144
8243
8012
8345
7914
8396
7886
8377
7944
8288
8036
8180
8158
8087
8223
8051
8226
8092
8164
8185
8061
8296
7972
8363
7933
8362
7966
8289
8072
8179
8195
8055
8296
7971
8350
7953
8329
8008
8240
8103
8144
8212
8063
8255
8050
8229
8131
8140
8227
8021
8345
7931
8415
7891
8402
7925
8319
8035
8215
8150
8092
8236
8017
8278
8032
8229
8100
8145
8212
8044
8286
7985
8310
8005
8264
8097
8155
8218
8036
8332
7942
8401
7916
8400
7951
8315
8040
8200
8154
8103
8228
8060
8243
8100
8177
8195
8070
8293
7970
8370
7921
8380
7945
8312
8048
8201
8160
8076
8277
7985
8334
7969
8315
8014
8227
8103
8126
8210
8054
8260
8038
8233
8113
8146
8205
8021
8322
7936
8413
7889
8413
7925
8336
8013
8230
8141
8121
8235
8050
8280
8056
8248
8117
8132
8221
8044
8309
7979
8325
7983
8281
8068
8182
8190
8049
8302
7942
8376
7912
8380
7949
8309
8040
8197
8145
8097
8217
8057
8224
8089
8164
8182
8056
8285
7961
8376
7916
8393
7930
8340
8022
8223
8143
8104
8254
8007
8325
7992
8319
8035
8227
8126
8129
8231
8056
8274
8037
8248
8089
8166
8195
8056
8308
7936
8393
7890
8417
7922
8368
8004
8241
8123
8128
8210
8045
8238
8038
8201
8105
8116
8211
8025
8312
7964
8345
7965
8292
8038
8204
8165
8086
8283
7971
8361
7927
8369
7965
8322
8048
8210
8160
8116
8236
8074
8243
8094
8178
8181
8064
8276
7960
8374
7901
8408
7916
8362
8000
8245
8114
8116
8221
8019
8287
7996
8285
8037
8226
8131
8116
8227
8033
8289
8013
8265
8077
8194
8181
8075
8297
7960
8395
7896
8406
7915
8372
7998
8252
8111
8148
8209
8072
8252
8068
8215
8128
8135
8226
8035
8330
7959
8371
7953
8327
8025
8232
8138
8106
8252
7985
8328
7935
8353
7963
8309
8044
8209
8155
8088
8221
8051
8230
8065
8175
8162
8076
8268
7968
8378
7898
8413
7907
8382
7973
8270
8094
8154
8210
8054
8276
8025
8281
8055
8218
8159
8124
8258
8040
8318
8007
8287
8054
8217
8151
8092
8269
7976
8379
7911
8398
7903
8354
7974
8252
8083
8146
8180
8064
8242
8071
8208
8113
8123
8223
8017
8322
7939
8375
7931
8355
7990
8261
8108
8140
8226
8035
8315
7967
8357
7986
8304
8051
8203
8159
8102
8240
8055
8262
8074
8204
8157
8099
8272
7983
8371
7904
8415
7892
8388
7957
8287
8063
8173
8182
8079
8253
8023
8259
8054
8195
8146
8092
8241
8008
8317
7980
8308
8025
8241
8130
8132
8248
8006
8347
7928
8399
7921
8373
7986
8266
8094
8166
8194
8090
8249
8072
8216
8134
8139
8227
8026
8330
7935
8387
7912
8369
7950
8282
8074
8161
8185
8044
8280
7973
8320
7985
8287
8050
8198
8164
8089
8247
8044
8264
8048
8217
8129
8117
8244
8001
8360
7913
8414
7884
8387
7945
8312
8054
8197
8173
8104
8245
8048
8269
8077
8203
8165
8095
8253
8009
8338
7971
8341
7994
8262
8092
8147
8209
8025
8318
7938
8372
7920
8355
7974
8267
8074
8169
8183
8084
8238
8064
8218
8126
8145
8216
8032
8328
7935
8391
7895
8389
7937
8311
8049
8198
8177
8089
8272
8012
8319
8007
8286
8072
8197
8175
8094
8262
8031
8289
8037
8244
8111
8143
8225
8031
8339
7928
8411
7890
8400
7931
8308
8013
8200
8138
8106
8220
8052
8246
8069
8184
8152
8078
8256
8006
8348
7947
8360
7975
8290
8066
8185
8188
8066
8296
7970
8372
7948
8365
7990
8273
8086
8176
8185
8088
8252
8060
8235
8120
8158
8209
8041
8319
7944
8403
7898
8404
7917
8324
8004
8212
8131
8096
8224
8012
8268
8007
8270
8070
8181
8172
8083
8269
8015
8300
8006
8258
8077
8156
8187
8041
8307
7936
8397
7901
8403
7934
8333
8001
8220
8131
8119
8217
8067
8241
8072
8182
8156
8093
8265
7996
8353
7934
8373
7945
8324
8041
8233
8162
8100
8273
7982
8331
7945
8335
7982
8255
8076
8169
8183
8074
8241
8030
8215
8061
8142
8167
8029
8289
7942
8394
7895
8417
7915
8368
8000
8265
8145
8167
8245
8069
8299
8049
8274
8089
8172
8179
8065
8274
8001
8328
7999
8288
8061
8202
8177
8094
8308
7976
8392
7917
8387
7912
8311
7971
8191
8073
8082
8163
8032
8212
8078
8215
8193
8133
8279
7993
8349
7928
8398
7941
8365
8008
8254
8140
8146
8265
8026
8317
7972
8332
8003
8264
8077
8164
8200
8088
8280
8058
8273
8092
8191
8172
8061
8255
7915
8334
7847
8369
7858
8327
7938
8242
8083
8163
8236
8131
8322
8088
8280
8113
8202
8226
8111
8341
8036
8362
7995
8327
8041
8234
8155
8116
8266
7983
8354
7906
8379
7948
8366
8043
8266
8132
8126
8176
8033
8166
7989
8092
8045
7981
8123
7861
8232
7822
8326
7878
8371
7994
8320
8170
8243
8305
8154
8412
8091
8385
8072
8305
8124
8195
8214
8064
8267
8038
8283
8058
8193
8122
8058
8228
7950
8351
7872
8367
7853
8344
7942
8284
8097
8193
8198
8105
8268
8083
8246
8069
8124
8150
8009
8209
7889
8258
7841
8209
7886
8152
8022
8074
8209
8040
8381
8003
8437
8014
8436
8164
8401
8254
8245
8296
8159
8328
8125
8248
8170
8139
8253
7989
8336
7897
8381
7865
8353
7905
8229
7970
8074
8052
7956
8189
7954
8274
8026
8282
8187
8260
8309
8133
8327
8039
8307
8034
8238
8131
8128
8246
7999
8362
7922
8418
7911
8389
7950
8286
8049
8177
8142
8056
8182
8010
8170
8037
8087
8121
7985
8231
7924
8343
7928
8350
7965
8281
8059
8146
8187
8047
8309
7989
8410
8010
8373
8051
8270
8153
8189
8269
8125
8313
8098
8251
8168
8170
8250
8017
8338
7895
8374
7852
8378
7907
8291
8010
8201
8169
8102
8238
8029
8290
8028
8209
8071
8085
8153
7987
8238
7933
8240
7946
8191
8046
8118
8199
8031
8372
7986
8444
7958
8449
8008
8330
8035
8185
8154
8093
8208
8042
8216
8093
8183
8236
8117
8344
7991
8384
7936
8405
7960
8294
8040
8191
8170
8055
8255
7949
8279
7942
8309
8031
8292
8199
8209
8273
8102
8311
8100
8300
8186
8224
8295
8097
8381
7970
8441
7917
8422
7934
8356
8045
8247
8165
8143
8265
8087
8326
8112
8298
8182
8193
8259
8069
8327
7983
8327
7987
8291
8092
8188
8156
7979
8215
7849
8266
7799
8271
7835
8199
7979
8169
8157
8162
8305
8163
8342
8181
8213
8203
8056
8274
7945
8354
7887
8373
7913
8325
8017
8229
8162
8148
8299
8037
8325
7984
8313
8041
8226
8126
8128
8234
8080
8313
8076
8302
8148
8219
8235
8077
8305
7908
8349
7827
8329
7834
8254
7884
8128
8014
8070
8187
8071
8284
8082
8263
8172
8180
8273
8068
8332
7972
8343
7957
8283
7991
8145
8090
8032
8256
7965
8357
7935
8375
7964
8327
8064
8230
8180
8149
8241
8073
8235
8079
8160
8155
8043
8275
7971
8384
7940
8450
7968
8428
8068
8321
8180
8183
8261
8045
8295
8011
8293
8057
8237
8152
8132
8237
8033
8282
8010
8262
8075
8200
8185
8073
8291
7947
8378
7886
8403
7905
8345
7967
8236
8085
8107
8148
8003
8170
7973
8110
8007
8012
8113
7940
8251
7916
8383
8026
8463
8145
8339
8211
8143
8266
7998
8302
7887
8285
7900
8249
8039
8243
8218
8167
8263
8066
8255
8102
8231
8213
8118
8289
7984
8397
7905
8370
7830
8284
7892
8212
8044
8119
8158
7994
8216
7986
8293
8114
8276
8178
8112
8214
7978
8209
7893
8170
7942
8145
8086
8051
8271
8069
8507
8072
8568
8057
8477
8074
8338
8156
8214
8229
8116
8302
8141
8278
8173
8156
8258
8057
8365
7972
8393
7945
8386
8043
8318
8156
8188
8254
8052
8286
7897
8254
7885
8214
7981
8149
8086
8033
8159
8005
8219
8054
8222
8183
8121
8274
7994
8375
7897
8397
7888
8386
7963
8294
8084
8187
8201
8106
8275
8038
8251
8032
8144
8075
8036
8187
7951
8227
7871
8182
7891
8140
8044
8041
8194
8014
8388
8012
8554
8088
8504
8085
8374
8185
8251
8264
8138
8283
8094
8223
8134
8141
8225
8012
8316
7922
8364
7903
8382
7973
8292
8077
8145
8147
7983
8206
7889
8236
7913
8206
7983
8141
8111
8077
8241
8045
8266
8043
8199
8117
8106
8238
7980
8329
7874
8375
7864
8385
7943
8293
8012
8166
8174
8145
8293
8079
8284
8108
8275
8259
8210
8336
8017
8301
7937
8317
8008
8282
8126
8190
8270
8081
8372
7974
8413
7947
8372
7978
8250
8052
8156
8168
8076
8245
8091
8246
8144
8144
8223
8027
8334
7938
8394
7904
8394
7931
8279
8016
8152
8131
8038
8232
7979
8300
7985
8260
8021
8097
8058
7986
8164
7988
8280
8080
8291
8161
8162
8255
8062
8404
7979
8443
7908
8414
7933
8305
8022
8198
8150
8114
8227
8048
8247
8091
8223
8193
8113
8267
7995
8335
7954
8374
8002
8298
8089
8202
8222
8059
8285
7934
8335
7920
8352
7998
8261
8058
8143
8169
8076
8233
8051
8214
8099
8102
8173
7993
8297
7930
8400
7923
8433
7928
8317
8017
8187
8113
8075
8248
8052
8345
8090
8355
8132
8222
8226
8110
8292
8038
8308
7982
8187
8026
8072
8131
7945
8246
7865
8366
7894
8418
7970
8367
8084
8273
8213
8210
8307
8125
8290
8102
8175
8156
8087
8292
8018
8395
8022
8471
8052
8406
8111
8215
8144
8052
8262
7962
8332
7928
8293
7945
8233
8083
8175
8192
8050
8181
7987
8164
8022
8082
8147
7989
8254
7899
8382
7877
8368
7856
8281
7941
8186
8109
8119
8231
8013
8239
8020
8283
8144
8244
8264
8140
8330
8051
8365
8047
8304
8098
8194
8200
8065
8307
7951
8378
7879
8365
7896
8271
7957
8162
8080
8089
8182
8016
8169
8056
8183
8171
8116
8325
8064
8435
7998
8462
8023
8418
8089
8268
8157
8122
8267
8019
8348
7990
8345
8012
8267
8098
8172
8211
8080
8202
7964
8158
7980
8076
8079
7942
8195
7874
8385
7938
8482
7994
8443
8030
8276
8131
8171
8218
8054
8247
8034
8252
8087
8137
8163
8022
8255
7975
8326
7984
8313
8059
8230
8189
8114
8296
7990
8385
7937
8402
7963
8350
8035
8251
8142
8148
8213
8068
8242
8080
8175
8145
8065
8232
7955
8329
7879
8340
7858
8287
7924
8195
8068
8094
8188
8001
8306
8003
8340
8046
8298
8160
8226
8246
8080
8283
8034
8257
8064
8195
8159
8060
8258
7953
8380
7899
8427
7922
8439
8054
8335
8129
8183
8219
8083
8240
8041
8222
8096
8177
8234
8092
8333
8003
8362
7957
8298
7983
8193
8070
8056
8207
7961
8318
7915
8349
7929
8340
8040
8251
8133
8121
8201
8071
8263
8094
8208
8162
8098
8244
7974
8336
7903
8409
7911
8363
7926
8223
8040
8163
8237
8098
8294
7992
8285
8032
8267
8103
8109
8145
7991
8217
7964
8221
8004
8216
8166
8140
8336
8086
8463
7987
8491
7971
8440
8016
8328
8112
8189
8175
8073
8212
8029
8201
8088
8137
8180
8038
8287
7964
8390
7997
8379
8002
8266
8102
8131
8186
7979
8272
7898
8319
7920
8302
8039
8283
8199
8201
8240
8061
8213
8019
8157
8101
8101
8271
8048
8427
7970
8456
7940
8453
7999
8325
8074
8196
8181
8077
8265
8018
8249
7983
8146
8019
8028
8113
7969
8229
7953
8301
8091
8314
8190
8173
8283
8056
8396
7948
8405
7890
8372
7978
8319
8107
8231
8218
8132
8240
8043
8187
8078
8149
8215
8061
8305
7930
8330
7881
8330
7932
8257
8039
8144
8184
8038
8279
7960
8345
7979
8327
8036
8240
8139
8121
8221
8054
8248
8031
8187
8109
8117
8219
7981
8319
7898
8393
7880
8405
7943
8338
8083
8251
8189
8106
8228
8025
8268
8034
8212
8106
8106
8214
8023
8290
7971
8310
7997
8255
8103
8165
8222
8039
8325
7932
8377
7901
8364
7948
8277
8035
8167
8161
8108
8260
8099
8263
8135
8190
8221
8060
8317
7952
8368
7898
8377
7948
8310
8037
8192
8160
8075
8264
7988
8313
7956
8283
8038
8259
8191
8180
8277
8077
8289
8052
8251
8133
8175
8240
8058
8343
7928
8402
7881
8405
7922
8326
7999
8203
8127
8117
8229
8046
8236
8024
8181
8089
8102
8216
8015
8310
7979
8359
7996
8298
8092
8211
8218
8090
8318
7967
8395
7941
8380
7967
8299
8055
8204
8170
8107
8232
8069
8216
8087
8164
8202
8069
8311
7968
8384
7897
8392
7922
8325
8017
8198
8101
8081
8227
7995
8303
8011
8306
8050
8219
8170
8137
8259
8052
8291
8028
8238
8063
8121
8161
8021
8288
7906
8346
7839
8384
7890
8309
8003
8278
8190
8210
8272
8091
8260
8023
8136
8078
8079
8213
7979
8273
7917
8329
7935
8283
8027
8220
8209
8135
8313
8020
8420
8024
8453
8048
8381
8125
8238
8182
8106
8238
8069
8253
8129
8200
8220
8122
8359
8016
8433
7931
8430
7927
8363
7983
8241
8099
8112
8194
7997
8235
7963
8230
8014
8175
8118
8060
8193
7976
8247
7982
8261
8062
8172
8144
8057
8292
7976
8420
7947
8445
7923
8342
7958
8210
8084
8127
8195
8077
8240
8076
8233
8175
8159
8260
8016
8330
7944
8370
7946
8329
7998
8226
8130
8126
8254
8005
8323
7947
8347
7985
8310
8074
8220
8185
8100
8246
8049
8224
8042
8155
8155
8072
8263
7964
8396
7926
8426
7901
8370
7974
8270
8083
8146
8186
8028
8226
7974
8204
8014
8156
8110
8049
8199
7970
8274
7968
8268
8011
8188
8128
8091
8272
8000
8384
7923
8397
7944
8409
8056
8341
8159
8187
8220
8115
8279
8112
8237
8164
8151
8261
8041
8363
7951
8393
7922
8349
7958
8252
8081
8134
8205
8028
8301
7965
8325
7981
8276
8059
8184
8157
8079
8236
8034
8242
8056
8203
8149
8091
8248
7968
8368
7905
8423
7900
8388
7957
8294
8069
8175
8170
8050
8219
8025
8249
8063
8192
8179
8093
8271
8016
8352
8018
8396
8093
8300
8153
8153
8251
7998
8329
7924
8373
7903
8335
7962
8238
8052
8118
8160
8082
8263
8082
8216
8133
8122
8227
8026
8365
7959
8419
7933
8402
7972
8305
8090
8204
8199
8054
8267
7985
8317
8014
8303
8110
8233
8237
8155
8308
8047
8273
8042
8232
8139
8124
8240
7981
8312
7863
8372
7878
8386
7937
8297
8052
8184
8150
8089
8208
8019
8223
8066
8176
8142
8045
8224
7973
8335
7943
8356
8016
8321
8118
8175
8231
8062
8321
7950
8369
7936
8366
8027
8316
8139
8183
8189
8084
8260
8077
8248
8161
8164
8229
8024
8347
7943
8392
7876
8376
7919
8295
8015
8186
8152
8084
8244
8012
8321
8051
8308
8101
8185
8157
8025
8180
7932
8204
7952
8185
8055
8107
8190
7994
8321
7950
8448
7932
8428
7974
8360
8058
8226
8148
8116
8229
8069
8260
8087
8187
8183
8102
8283
7985
8327
7901
8325
7933
8298
8071
8220
8213
8117
8338
8036
8393
7950
8321
7985
8252
8073
8137
8176
8078
8260
8074
8245
8135
8173
8217
8030
8298
7912
8378
7885
8409
7932
8341
8007
8215
8113
8092
8216
8015
8276
8044
8287
8125
8196
8199
8083
8285
8005
8308
7994
8259
8070
8164
8179
8023
8279
7906
8363
7874
8374
7928
8332
8019
8180
8099
8065
8154
8008
8167
8026
8111
8099
8041
8269
8037
8442
8008
8436
7982
8364
8074
8254
8179
8126
8300
8018
8352
7996
8368
8032
8281
8118
8183
8207
8068
8250
8040
8225
8076
8137
8168
8012
8266
7891
8333
7834
8373
7917
8410
8067
8283
8144
8160
8219
8048
8257
8052
8264
8125
8189
8218
8076
8314
8015
8352
8009
8307
8069
8212
8183
8090
8293
7976
8378
7922
8385
7953
8344
8027
8229
8136
8132
8208
8063
8236
8072
8174
8141
8068
8250
7948
8337
7888
8364
7889
8311
7956
8210
8079
8100
8202
8014
8310
7994
8323
8034
8275
8111
8162
8200
8070
8283
8052
8270
8096
8213
8193
8103
8308
7977
8385
7896
8411
7910
8385
7983
8277
8100
8164
8198
8072
8247
8038
8217
8086
8150
8181
8042
8282
7967
8342
7954
8300
7995
8211
8110
8101
8244
8002
8360
7945
8399
7959
8336
8010
8219
8106
8141
8223
8081
8269
8099
8210
8157
8102
8259
7994
8361
7932
8427
7928
8383
7938
8238
8033
8115
8158
8020
8271
8009
8323
8066
8301
8183
8233
8280
8087
8316
8047
8311
8054
8230
8143
8096
8234
7960
8347
7897
8405
7895
8376
7966
8304
8093
8182
8176
8088
8233
8048
8221
8099
8167
8206
8047
8283
7953
8352
7935
8345
7970
8260
8079
8160
8244
8067
8332
7962
8344
7935
8295
7988
8168
8014
8020
8113
8010
8216
8051
8194
8110
8103
8233
8018
8413
8010
8517
8007
8505
8020
8353
8072
8209
8187
8101
8257
8011
8273
8024
8230
8113
8156
8220
8060
8323
8037
8351
8048
8284
8140
8172
8253
8035
8347
7927
8389
7901
8383
7950
8304
8046
8161
8122
8059
8197
8040
8221
8100
8169
8197
8050
8280
7938
8343
7886
8328
7916
8277
8038
8162
8148
8040
8258
7963
8316
7955
8311
8028
8228
8121
8128
8218
8069
8277
8057
8235
8120
8144
8220
8024
8330
7919
8393
7869
8380
7896
8300
8000
8198
8117
8087
8202
8024
8263
8064
8276
8166
8174
8251
8056
8313
7982
8316
7975
8260
8053
8143
8155
8024
8291
7941
8383
7932
8392
7966
8343
8085
8261
8216
8170
8264
8095
8229
8089
8156
8185
8070
8329
8000
8414
7943
8421
7942
8342
8035
8237
8145
8114
8269
8026
8340
7997
8296
8018
8199
8087
8092
8190
8017
8249
8010
8220
8069
8142
8186
8042
8305
7921
8370
7855
8363
7864
8307
7959
8204
8092
8127
8225
8071
8269
8091
8257
8138
8153
8239
8062
8334
7991
8394
8022
8349
8085
8247
8193
8128
8310
7997
8392
7953
8385
7978
8339
8067
8219
8154
8112
8231
8061
8216
8070
8160
8153
8037
8258
7944
8360
7885
8395
7905
8360
7984
8252
8115
8134
8232
8044
8298
8003
8285
8030
8202
8113
8096
8207
8009
8263
7997
8259
8062
8184
8159
8063
8272
7961
8387
7911
8433
7946
8417
8040
8305
8128
8171
8209
8086
8269
8076
8221
8124
8138
8222
8037
8343
7985
8394
7958
8340
8003
8246
8114
8119
8229
7995
8325
7943
8347
7962
8318
8046
8207
8130
8075
8190
8024
8207
8046
8163
8142
8091
8249
7953
8347
7905
8424
7920
8410
7996
8314
8114
8196
8210
8075
8254
8007
8263
8036
8198
8113
8097
8236
8033
8291
7972
8265
7997
8197
8111
8100
8224
7955
8325
7891
8382
7913
8373
7982
8300
8123
8208
8222
8139
8283
8090
8228
8107
8117
8181
7994
8301
7932
8361
7903
8371
8007
8340
8147
8229
8257
8079
8309
7974
8332
7971
8303
8061
8226
8170
8113
8240
8051
8270
8058
8214
8134
8115
8241
7982
8326
7880
8383
7865
8375
7919
8290
8044
8194
8175
8112
8256
8051
8277
8068
8216
8159
8122
8249
8018
8309
7956
8301
7977
8231
8082
8143
8248
8069
8380
7975
8401
7919
8353
7954
8279
8069
8189
8198
8123
8280
8112
8254
8132
8143
8209
8016
8290
7916
8341
7858
8342
7910
8265
7990
8158
8135
8047
8252
7988
8319
8000
8300
8048
8187
8123
8082
8244
8046
8285
8035
8241
8142
8186
8257
8054
8352
7951
8433
7910
8426
7943
8353
8041
8244
8178
8137
8234
8055
8246
8058
8201
8142
8096
8238
8005
8335
7972
8363
7983
8282
8052
8174
8174
8057
8286
7958
8361
7929
8357
7966
8278
8057
8175
8161
8088
8238
8061
8227
8106
8158
8207
8054
8315
7955
8385
7898
8403
7924
8337
8019
8226
8125
8099
8221
8008
8266
8003
8287
8067
8208
8172
8106
8255
8028
8296
8025
8273
8092
8177
8198
8061
8317
7947
8397
7899
8397
7926
8363
8025
8253
8132
8138
8207
8059
8246
8075
8197
8144
8101
8244
8001
8333
7942
8362
7945
8323
8035
8213
8142
8097
8267
7987
8344
7945
8362
7981
8292
8068
8186
8165
8088
8235
8050
8240
8083
8173
8178
8063
8285
7947
8385
7897
8415
7913
8377
7990
8256
8099
8129
8190
8046
8263
8022
8269
8063
8184
8156
8083
8252
8013
8309
7991
8283
8052
8210
8165
8104
8298
7986
8393
7923
8417
7937
8364
8006
8259
8120
8155
8207
8078
8249
8082
8211
8140
8115
8228
7988
8322
7923
8373
7911
8337
7979
8243
8099
8132
8220
8014
8298
7966
8329
7987
8286
8066
8188
8179
8092
8257
8048
8260
8070
8200
8160
8109
8283
7985
8380
7907
8419
7908
8391
7978
8298
8092
8192
8193
8090
8256
8039
8260
8070
8183
8165
8079
8265
8009
8330
7975
8304
8015
8235
8112
8122
8237
7989
8331
7921
8378
7921
8349
7985
8258
8082
8153
8188
8080
8245
8074
8214
8141
8136
8235
8024
8348
7946
8410
7928
8388
7971
8308
8085
8189
8213
8091
8296
8009
8327
8012
8282
8071
8181
8168
8073
8253
8023
8263
8041
8210
8131
8114
8248
7997
8357
7905
8406
7892
8400
7955
8308
8070
8206
8183
8112
8236
8054
8254
8081
8190
8177
8092
8285
8007
8352
7965
8359
8000
8280
8099
8169
8224
8054
8325
7958
8376
7952
8351
7999
8264
8092
8164
8187
8082
8245
8060
8223
8122
8126
8220
8018
8334
7926
8398
7897
8395
7932
8313
8040
8203
8162
8091
8261
8016
8305
8019
8270
8081
8179
8181
8078
8266
8017
8295
8027
8245
8107
8140
8218
8031
8335
7929
8397
7903
8403
7932
8310
8028
8211
8139
8110
8218
8056
8241
8082
8182
8170
8070
8258
7982
8343
7925
8358
7955
8300
8050
8184
8174
8062
8286
7971
8352
7949
8342
7999
8255
8090
8169
8197
8081
8253
8058
8228
8112
8154
8208
8039
8319
7944
8402
7897
8417
7930
8345
8035
8241
8146
8128
8239
8038
8288
8031
8256
8087
8174
8185
8069
8279
8000
8306
7996
8266
8080
8176
8184
8048
8305
7946
8390
7901
8388
7929
8325
8025
8216
8139
8123
8219
8071
8245
8085
8182
8169
8078
8273
7985
8349
7930
8393
7946
8334
8030
8232
8156
8124
8268
8006
8341
7976
8333
8002
8250
8087
8155
8191
8067
8246
8038
8238
8086
8163
8176
8053
8302
7950
8389
7889
8412
7907
8365
7993
8255
8109
8145
8212
8055
8263
8039
8254
8096
8166
8200
8071
8296
8001
8340
7988
8305
8060
8211
8166
8089
8283
7978
8375
7925
8385
7942
8335
8020
8228
8122
8130
8210
8059
8218
8070
8177
8150
8088
8258
7979
8353
7911
8396
7919
8360
7987
8253
8117
8141
8229
8029
8302
7991
8324
8019
8245
8091
8157
8197
8057
8276
8033
8264
8082
8200
8168
8088
8289
7971
8388
7899
8422
7900
8374
7969
8265
8089
8160
8193
8077
8244
8043
8237
8086
8154
8192
8045
8291
7966
8337
7958
8322
8010
8236
8126
8111
8241
7999
8341
7933
8376
7947
8334
8011
8238
8122
8132
8202
8067
8245
8070
8198
8145
8103
8251
7984
8361
7923
8410
7907
8386
7967
8285
8092
8172
8202
8063
8274
8003
8296
8020
8231
8101
8130
8201
8048
8276
8014
8270
8036
8215
8141
8106
8257
7978
8366
7911
8408
7901
8383
7960
8281
8064
8162
8170
8076
8233
8052
8221
8094
8153
8194
8043
8295
7963
8360
7940
8357
7995
8278
8111
8160
8233
8042
8315
7958
8362
7958
8335
8020
8226
8108
8124
8213
8060
8248
8058
8200
8131
8115
8240
8001
8355
7915
8407
7892
8393
7942
8305
8058
8188
8176
8089
8254
8020
8286
8033
8232
8108
8135
8215
8039
8295
8001
8310
8024
8247
8122
8142
8241
8021
8349
7926
8417
7915
8394
7966
8302
8062
8192
8173
8103
8230
8056
8227
8100
8158
8183
8044
8299
7952
8367
7923
8366
7963
8306
8077
8194
8201
8079
8301
7983
8361
7991
8330
8031
8232
8124
8127
8218
8057
8266
8055
8230
8127
8138
8229
8016
8352
7935
8420
